4.910120000000000000e+06
5.074643000000000000e+06
5.306941000000000000e+06
5.210972000000000000e+06
5.008194000000000000e+06
4.912581000000000000e+06
4.976913000000000000e+06
5.058362000000000000e+06
4.898279000000000000e+06
4.570246000000000000e+06
4.336799000000000000e+06
4.441785000000000000e+06
4.514424000000000000e+06
4.383514000000000000e+06
4.085666000000000000e+06
3.966533000000000000e+06
4.024346000000000000e+06
4.079408000000000000e+06
4.048472000000000000e+06
3.828926000000000000e+06
3.681799000000000000e+06
3.846481000000000000e+06
4.068544000000000000e+06
3.930832000000000000e+06
3.657300000000000000e+06
3.567543000000000000e+06
3.706157000000000000e+06
3.933210000000000000e+06
3.880956000000000000e+06
3.602118000000000000e+06
3.476051000000000000e+06
3.701364000000000000e+06
3.934807000000000000e+06
3.905619000000000000e+06
3.649140000000000000e+06
3.517338000000000000e+06
3.693437000000000000e+06
3.930270000000000000e+06
3.954097000000000000e+06
3.744545000000000000e+06
3.641114000000000000e+06
3.814419000000000000e+06
4.090562000000000000e+06
4.025231000000000000e+06
3.897325000000000000e+06
3.709789000000000000e+06
3.911802000000000000e+06
4.164894000000000000e+06
4.132078000000000000e+06
3.957015000000000000e+06
4.019280000000000000e+06
4.353634000000000000e+06
4.618643000000000000e+06
4.566970000000000000e+06
4.479831000000000000e+06
4.269145000000000000e+06
4.676382000000000000e+06
4.892117000000000000e+06
5.014858000000000000e+06
4.926528000000000000e+06
4.865003000000000000e+06
5.034951000000000000e+06
5.194349000000000000e+06
5.270951000000000000e+06
5.061853000000000000e+06
5.021994000000000000e+06
5.117559000000000000e+06
5.240023000000000000e+06
5.150871000000000000e+06
4.793026000000000000e+06
4.676658000000000000e+06
4.758403000000000000e+06
4.884308000000000000e+06
4.816906000000000000e+06
4.554314000000000000e+06
4.503031000000000000e+06
4.679168000000000000e+06
4.920051000000000000e+06
4.869540000000000000e+06
4.738813000000000000e+06
4.613638000000000000e+06
4.760920000000000000e+06
5.062508000000000000e+06
4.916296000000000000e+06
4.565489000000000000e+06
4.318802000000000000e+06
4.603962000000000000e+06
5.044336000000000000e+06
5.338630000000000000e+06
5.880895000000000000e+06
7.319388000000000000e+06
9.002319000000000000e+06
9.530410000000000000e+06
9.031451000000000000e+06
8.058867000000000000e+06
7.464383000000000000e+06
6.360915000000000000e+06
5.439790000000000000e+06
4.613942000000000000e+06
4.036378000000000000e+06
3.862472000000000000e+06
4.320625000000000000e+06
4.990822000000000000e+06
5.127671000000000000e+06
5.162190000000000000e+06
5.260382000000000000e+06
5.588728000000000000e+06
5.972706000000000000e+06
6.023939000000000000e+06
5.928041000000000000e+06
5.872243000000000000e+06
6.195727000000000000e+06
6.433835000000000000e+06
6.476682000000000000e+06
6.200842000000000000e+06
6.134352000000000000e+06
6.347241000000000000e+06
6.678009000000000000e+06
6.638467000000000000e+06
6.498584000000000000e+06
6.463851000000000000e+06
6.721498000000000000e+06
7.047484000000000000e+06
7.010932000000000000e+06
6.764167000000000000e+06
6.780153000000000000e+06
7.084632000000000000e+06
7.435523000000000000e+06
7.449009000000000000e+06
7.322067000000000000e+06
7.318343000000000000e+06
7.654932000000000000e+06
8.042019000000000000e+06
8.042387000000000000e+06
8.039490000000000000e+06
8.102977000000000000e+06
8.326733000000000000e+06
8.646563000000000000e+06
8.700287000000000000e+06
8.594201000000000000e+06
8.573064000000000000e+06
8.942860000000000000e+06
9.220472000000000000e+06
9.159907000000000000e+06
8.945369000000000000e+06
8.878097000000000000e+06
8.978181000000000000e+06
9.128837000000000000e+06
9.011006000000000000e+06
8.628933000000000000e+06
8.406631000000000000e+06
8.494773000000000000e+06
8.552896000000000000e+06
8.483985000000000000e+06
8.104983000000000000e+06
7.950324000000000000e+06
8.036152000000000000e+06
8.241959000000000000e+06
8.152700000000000000e+06
7.815206000000000000e+06
7.721932000000000000e+06
7.997813000000000000e+06
8.103741000000000000e+06
7.989761000000000000e+06
7.702139000000000000e+06
7.675645000000000000e+06
7.747573000000000000e+06
7.929203000000000000e+06
7.979778000000000000e+06
7.704504000000000000e+06
7.541079000000000000e+06
7.793281000000000000e+06
7.966957000000000000e+06
7.878927000000000000e+06
7.576305000000000000e+06
7.480425000000000000e+06
7.731977000000000000e+06
7.880308000000000000e+06
7.815792000000000000e+06
7.546650000000000000e+06
7.448880000000000000e+06
7.704642000000000000e+06
7.833975000000000000e+06
7.775484000000000000e+06
7.619307000000000000e+06
7.628644000000000000e+06
7.804570000000000000e+06
7.947293000000000000e+06
7.790743000000000000e+06
7.821456000000000000e+06
7.804368000000000000e+06
8.150194000000000000e+06
8.426163000000000000e+06
8.383509000000000000e+06
8.175289000000000000e+06
8.229329000000000000e+06
8.494094000000000000e+06
8.712306000000000000e+06
8.751178000000000000e+06
8.720017000000000000e+06
8.568774000000000000e+06
8.799576000000000000e+06
9.003538000000000000e+06
9.020514000000000000e+06
8.839049000000000000e+06
8.703963000000000000e+06
8.752897000000000000e+06
8.883001000000000000e+06
8.771307000000000000e+06
8.417301000000000000e+06
8.336655000000000000e+06
8.419590000000000000e+06
8.473838000000000000e+06
8.321938000000000000e+06
8.064916000000000000e+06
8.140973000000000000e+06
8.222058000000000000e+06
8.380740000000000000e+06
8.364831000000000000e+06
8.234689000000000000e+06
8.175985000000000000e+06
8.349725000000000000e+06
8.532597000000000000e+06
8.533109000000000000e+06
8.123084000000000000e+06
7.714550000000000000e+06
7.861959000000000000e+06
8.319456000000000000e+06
8.515365000000000000e+06
8.998552000000000000e+06
1.022460900000000000e+07
1.196610000000000000e+07
1.271768100000000000e+07
1.204162300000000000e+07
1.121069400000000000e+07
1.089389000000000000e+07
9.708767000000000000e+06
8.921682000000000000e+06
7.941173000000000000e+06
7.345310000000000000e+06
6.970876000000000000e+06
7.383414000000000000e+06
7.876521000000000000e+06
8.185975000000000000e+06
8.188945000000000000e+06
8.349530000000000000e+06
8.582118000000000000e+06
9.064833000000000000e+06
9.136320000000000000e+06
8.891672000000000000e+06
8.969716000000000000e+06
9.185640000000000000e+06
9.442887000000000000e+06
9.463889000000000000e+06
9.279257000000000000e+06
9.273648000000000000e+06
9.509267000000000000e+06
9.686263000000000000e+06
9.659080000000000000e+06
9.496960000000000000e+06
9.392050000000000000e+06
9.672157000000000000e+06
9.903986000000000000e+06
9.972259000000000000e+06
9.735890000000000000e+06
9.663195000000000000e+06
9.899048000000000000e+06
1.021563300000000000e+07
1.023531100000000000e+07
1.013190100000000000e+07
1.014695900000000000e+07
1.048949400000000000e+07
1.074907900000000000e+07
1.080399200000000000e+07
1.070842200000000000e+07
1.080944100000000000e+07
1.105376200000000000e+07
1.130467400000000000e+07
1.141131000000000000e+07
1.121327900000000000e+07
1.119437100000000000e+07
1.149136700000000000e+07
1.177058000000000000e+07
1.168779100000000000e+07
1.153462900000000000e+07
1.137238800000000000e+07
1.163514300000000000e+07
1.168274300000000000e+07
1.156169300000000000e+07
1.121472100000000000e+07
1.106599100000000000e+07
1.106785300000000000e+07
1.118981300000000000e+07
1.112120300000000000e+07
1.071627800000000000e+07
1.056210100000000000e+07
1.072653200000000000e+07
1.085034000000000000e+07
1.063201200000000000e+07
1.041310800000000000e+07
1.030353600000000000e+07
1.047324200000000000e+07
1.066433300000000000e+07
1.056806900000000000e+07
1.032734000000000000e+07
1.023251700000000000e+07
1.036692100000000000e+07
1.056120300000000000e+07
1.049242100000000000e+07
1.030449600000000000e+07
1.012785300000000000e+07
1.047041300000000000e+07
1.050749500000000000e+07
1.054749300000000000e+07
1.023320700000000000e+07
1.018282300000000000e+07
1.028941800000000000e+07
1.053432500000000000e+07
1.034320800000000000e+07
1.014158200000000000e+07
1.002704700000000000e+07
1.030573300000000000e+07
1.042132700000000000e+07
1.036643600000000000e+07
1.014920400000000000e+07
1.003987900000000000e+07
1.030053700000000000e+07
1.047611000000000000e+07
1.033877700000000000e+07
1.010166200000000000e+07
1.012888500000000000e+07
1.045953900000000000e+07
1.071170600000000000e+07
1.067468000000000000e+07
1.045892900000000000e+07
1.038986500000000000e+07
1.076211700000000000e+07
1.104859000000000000e+07
1.113877300000000000e+07
1.095660600000000000e+07
1.094663700000000000e+07
1.114730100000000000e+07
1.123246500000000000e+07
1.129088900000000000e+07
1.106115800000000000e+07
1.090397200000000000e+07
1.107110700000000000e+07
1.116269500000000000e+07
1.095187400000000000e+07
1.073961600000000000e+07
1.051216800000000000e+07
1.060719200000000000e+07
1.071650900000000000e+07
1.051817800000000000e+07
1.029910700000000000e+07
1.013387900000000000e+07
1.035950800000000000e+07
1.048442700000000000e+07
1.041221700000000000e+07
1.023290300000000000e+07
1.007831300000000000e+07
1.031563000000000000e+07
1.052588600000000000e+07
1.052560200000000000e+07
1.013314800000000000e+07
9.774421000000000000e+06
9.918484000000000000e+06
1.034794700000000000e+07
1.040734000000000000e+07
1.071959600000000000e+07
1.196211400000000000e+07
1.362803000000000000e+07
1.484712000000000000e+07
1.486457400000000000e+07
1.361234700000000000e+07
1.306092000000000000e+07
1.164636400000000000e+07
1.081071300000000000e+07
9.644419000000000000e+06
8.836852000000000000e+06
8.694928000000000000e+06
9.177534000000000000e+06
9.620219000000000000e+06
9.947274000000000000e+06
9.907405000000000000e+06
1.000205100000000000e+07
1.032390000000000000e+07
1.063614700000000000e+07
1.061897500000000000e+07
1.048843900000000000e+07
1.035122600000000000e+07
1.065410900000000000e+07
1.090694000000000000e+07
1.086726500000000000e+07
1.060682800000000000e+07
1.050243900000000000e+07
1.071263200000000000e+07
1.094244800000000000e+07
1.072470800000000000e+07
1.059644400000000000e+07
1.050795000000000000e+07
1.072295600000000000e+07
1.080046300000000000e+07
1.065425300000000000e+07
1.037056300000000000e+07
1.028941600000000000e+07
1.036851700000000000e+07
1.045829400000000000e+07
1.034272000000000000e+07
1.004319600000000000e+07
9.927716000000000000e+06
1.008559100000000000e+07
1.017214000000000000e+07
1.016471800000000000e+07
9.966977000000000000e+06
9.795974000000000000e+06
1.011284400000000000e+07
1.024998300000000000e+07
1.022631100000000000e+07
1.000703500000000000e+07
9.940080000000000000e+06
1.016974800000000000e+07
1.028827300000000000e+07
1.021893000000000000e+07
9.925546000000000000e+06
9.797979000000000000e+06
9.852966000000000000e+06
9.909837000000000000e+06
9.755050000000000000e+06
9.271898000000000000e+06
9.132594000000000000e+06
9.235133000000000000e+06
9.265266000000000000e+06
9.013287000000000000e+06
8.719212000000000000e+06
8.488565000000000000e+06
8.565392000000000000e+06
8.580561000000000000e+06
8.450545000000000000e+06
8.213572000000000000e+06
8.062650000000000000e+06
8.234180000000000000e+06
8.203083000000000000e+06
8.071988000000000000e+06
7.785725000000000000e+06
7.795743000000000000e+06
7.985868000000000000e+06
8.065874000000000000e+06
7.875110000000000000e+06
7.656016000000000000e+06
7.548447000000000000e+06
7.761356000000000000e+06
7.887086000000000000e+06
7.770071000000000000e+06
7.548041000000000000e+06
7.414799000000000000e+06
7.650083000000000000e+06
7.759032000000000000e+06
7.728076000000000000e+06
7.509894000000000000e+06
7.424760000000000000e+06
7.646530000000000000e+06
7.732361000000000000e+06
7.691128000000000000e+06
7.423392000000000000e+06
7.459386000000000000e+06
7.638462000000000000e+06
7.736481000000000000e+06
7.688839000000000000e+06
7.505181000000000000e+06
7.430955000000000000e+06
7.659867000000000000e+06
7.801545000000000000e+06
7.684734000000000000e+06
7.553337000000000000e+06
7.475086000000000000e+06
7.663256000000000000e+06
7.872336000000000000e+06
8.001599000000000000e+06
7.914883000000000000e+06
7.801342000000000000e+06
8.132525000000000000e+06
8.269223000000000000e+06
8.243196000000000000e+06
8.033581000000000000e+06
8.097505000000000000e+06
8.361279000000000000e+06
8.622222000000000000e+06
8.499424000000000000e+06
8.303022000000000000e+06
8.239714000000000000e+06
8.427358000000000000e+06
8.543861000000000000e+06
8.485501000000000000e+06
8.220366000000000000e+06
7.955671000000000000e+06
8.118110000000000000e+06
8.180664000000000000e+06
8.016062000000000000e+06
7.818831000000000000e+06
7.628834000000000000e+06
7.699989000000000000e+06
7.866109000000000000e+06
7.773666000000000000e+06
7.645198000000000000e+06
7.522549000000000000e+06
7.739614000000000000e+06
7.926953000000000000e+06
7.806060000000000000e+06
7.588673000000000000e+06
7.507443000000000000e+06
7.685515000000000000e+06
7.500287000000000000e+06
7.295906000000000000e+06
7.358774000000000000e+06
7.581273000000000000e+06
8.151409000000000000e+06
9.577981000000000000e+06
1.088929000000000000e+07
1.182508500000000000e+07
1.149286100000000000e+07
1.074936200000000000e+07
1.068978600000000000e+07
9.270167000000000000e+06
8.313979000000000000e+06
7.232382000000000000e+06
6.735777000000000000e+06
6.749340000000000000e+06
6.570021000000000000e+06
6.718062000000000000e+06
7.027768000000000000e+06
7.384138000000000000e+06
7.726103000000000000e+06
8.010025000000000000e+06
7.920875000000000000e+06
7.947528000000000000e+06
8.236720000000000000e+06
8.535422000000000000e+06
8.511270000000000000e+06
8.265890000000000000e+06
8.208988000000000000e+06
8.509178000000000000e+06
8.785473000000000000e+06
8.747716000000000000e+06
8.468272000000000000e+06
8.435847000000000000e+06
8.804071000000000000e+06
9.040405000000000000e+06
9.017666000000000000e+06
8.863626000000000000e+06
8.820313000000000000e+06
9.063705000000000000e+06
9.334300000000000000e+06
9.319623000000000000e+06
9.260327000000000000e+06
9.272855000000000000e+06
9.507476000000000000e+06
9.804058000000000000e+06
9.775593000000000000e+06
9.685461000000000000e+06
9.716043000000000000e+06
1.010242700000000000e+07
1.025667400000000000e+07
1.036336300000000000e+07
1.020473000000000000e+07
1.020502800000000000e+07
1.055717900000000000e+07
1.076263300000000000e+07
1.078358600000000000e+07
1.058842800000000000e+07
1.051572700000000000e+07
1.067521900000000000e+07
1.086067400000000000e+07
1.087417300000000000e+07
1.053164000000000000e+07
1.038734300000000000e+07
1.042017100000000000e+07
1.055471500000000000e+07
1.034036100000000000e+07
9.970956000000000000e+06
9.735347000000000000e+06
9.868137000000000000e+06
9.919022000000000000e+06
9.636051000000000000e+06
9.451108000000000000e+06
9.336224000000000000e+06
9.523206000000000000e+06
9.652212000000000000e+06
9.477012000000000000e+06
9.255463000000000000e+06
9.173701000000000000e+06
9.293494000000000000e+06
9.485001000000000000e+06
9.310047000000000000e+06
9.181138000000000000e+06
8.992873000000000000e+06
9.207840000000000000e+06
9.373792000000000000e+06
9.201195000000000000e+06
9.038003000000000000e+06
8.918833000000000000e+06
9.112600000000000000e+06
9.265863000000000000e+06
9.132047000000000000e+06
8.973945000000000000e+06
8.869711000000000000e+06
9.059593000000000000e+06
9.140184000000000000e+06
9.010759000000000000e+06
8.789177000000000000e+06
8.776155000000000000e+06
8.972121000000000000e+06
9.051399000000000000e+06
8.911698000000000000e+06
8.849419000000000000e+06
8.729902000000000000e+06
9.007050000000000000e+06
9.166815000000000000e+06
8.995806000000000000e+06
8.890476000000000000e+06
8.678601000000000000e+06
8.960023000000000000e+06
9.244176000000000000e+06
9.218023000000000000e+06
9.142772000000000000e+06
9.103639000000000000e+06
9.488839000000000000e+06
9.563795000000000000e+06
9.584771000000000000e+06
9.455380000000000000e+06
9.451626000000000000e+06
9.754620000000000000e+06
1.002938000000000000e+07
1.002289300000000000e+07
9.772644000000000000e+06
9.622923000000000000e+06
9.875037000000000000e+06
1.019593200000000000e+07
1.001409100000000000e+07
9.710802000000000000e+06
9.469407000000000000e+06
9.584029000000000000e+06
9.748994000000000000e+06
9.408997000000000000e+06
9.105316000000000000e+06
8.991746000000000000e+06
9.178349000000000000e+06
9.157825000000000000e+06
9.012629000000000000e+06
8.888970000000000000e+06
8.826839000000000000e+06
9.028069000000000000e+06
9.122348000000000000e+06
9.078840000000000000e+06
8.900480000000000000e+06
8.862362000000000000e+06
8.966671000000000000e+06
9.002313000000000000e+06
8.650017000000000000e+06
8.229763000000000000e+06
8.395516000000000000e+06
8.958835000000000000e+06
9.892326000000000000e+06
1.116308800000000000e+07
1.243443600000000000e+07
1.368338600000000000e+07
1.367493600000000000e+07
1.290980700000000000e+07
1.269441300000000000e+07
1.120718700000000000e+07
9.995625000000000000e+06
8.946999000000000000e+06
8.453782000000000000e+06
7.886687000000000000e+06
7.695723000000000000e+06
7.958503000000000000e+06
8.482975000000000000e+06
8.603994000000000000e+06
8.763823000000000000e+06
8.645223000000000000e+06
8.780890000000000000e+06
9.075306000000000000e+06
9.338960000000000000e+06
9.319491000000000000e+06
9.103742000000000000e+06
9.081929000000000000e+06
9.287018000000000000e+06
9.498313000000000000e+06
9.519872000000000000e+06
9.301749000000000000e+06
9.198673000000000000e+06
9.492011000000000000e+06
9.701864000000000000e+06
9.674797000000000000e+06
9.435874000000000000e+06
9.427769000000000000e+06
9.623930000000000000e+06
9.819412000000000000e+06
9.878313000000000000e+06
9.681173000000000000e+06
9.690963000000000000e+06
9.913144000000000000e+06
1.014095700000000000e+07
1.014613500000000000e+07
1.004195100000000000e+07
1.006323900000000000e+07
1.032247100000000000e+07
1.057950300000000000e+07
1.057991400000000000e+07
1.042404500000000000e+07
1.045993400000000000e+07
1.071602400000000000e+07
1.095663400000000000e+07
1.092064400000000000e+07
1.071043700000000000e+07
1.074092400000000000e+07
1.101835000000000000e+07
1.116550500000000000e+07
1.111530700000000000e+07
1.090022000000000000e+07
1.080361600000000000e+07
1.089389900000000000e+07
1.092292100000000000e+07
1.074962900000000000e+07
1.044043900000000000e+07
1.034175200000000000e+07
1.049356900000000000e+07
1.045721800000000000e+07
1.029011400000000000e+07
1.000036800000000000e+07
9.824259000000000000e+06
9.948985000000000000e+06
1.005618300000000000e+07
9.880157000000000000e+06
9.668447000000000000e+06
9.493431000000000000e+06
9.660401000000000000e+06
9.809438000000000000e+06
9.687458000000000000e+06
9.470319000000000000e+06
9.372148000000000000e+06
9.503301000000000000e+06
9.618765000000000000e+06
9.437319000000000000e+06
9.226945000000000000e+06
9.136437000000000000e+06
9.306982000000000000e+06
9.448635000000000000e+06
9.333824000000000000e+06
9.100654000000000000e+06
8.992427000000000000e+06
9.165544000000000000e+06
9.263443000000000000e+06
9.124463000000000000e+06
8.928955000000000000e+06
8.886986000000000000e+06
9.054876000000000000e+06
9.135477000000000000e+06
9.149269000000000000e+06
8.896471000000000000e+06
8.925349000000000000e+06
9.114707000000000000e+06
9.279267000000000000e+06
9.242136000000000000e+06
9.099355000000000000e+06
9.142643000000000000e+06
9.396406000000000000e+06
9.634730000000000000e+06
9.590629000000000000e+06
9.395721000000000000e+06
9.473190000000000000e+06
9.767758000000000000e+06
9.974663000000000000e+06
9.979277000000000000e+06
9.701802000000000000e+06
9.648247000000000000e+06
9.870036000000000000e+06
1.009408100000000000e+07
9.946101000000000000e+06
9.689552000000000000e+06
9.570472000000000000e+06
9.607492000000000000e+06
9.846020000000000000e+06
9.517500000000000000e+06
9.205920000000000000e+06
9.173331000000000000e+06
9.163143000000000000e+06
9.321556000000000000e+06
9.249408000000000000e+06
9.002200000000000000e+06
8.891236000000000000e+06
9.101944000000000000e+06
9.284879000000000000e+06
9.164147000000000000e+06
8.993170000000000000e+06
9.034540000000000000e+06
9.175573000000000000e+06
9.317437000000000000e+06
8.961397000000000000e+06
8.490123000000000000e+06
8.610800000000000000e+06
9.124743000000000000e+06
9.541568000000000000e+06
1.059105700000000000e+07
1.178716500000000000e+07
1.320488000000000000e+07
1.356769400000000000e+07
1.301626200000000000e+07
1.225799800000000000e+07
1.078092800000000000e+07
9.714003000000000000e+06
8.657266000000000000e+06
8.162088000000000000e+06
7.799878000000000000e+06
7.698359000000000000e+06
8.052394000000000000e+06
8.656330000000000000e+06
9.004361000000000000e+06
9.004192000000000000e+06
8.964129000000000000e+06
9.129756000000000000e+06
9.343999000000000000e+06
9.591692000000000000e+06
9.498382000000000000e+06
9.313579000000000000e+06
9.283402000000000000e+06
9.503978000000000000e+06
9.706125000000000000e+06
9.559556000000000000e+06
9.456994000000000000e+06
9.289477000000000000e+06
9.504398000000000000e+06
9.711891000000000000e+06
9.637466000000000000e+06
9.426046000000000000e+06
9.382367000000000000e+06
9.669827000000000000e+06
9.802944000000000000e+06
9.708708000000000000e+06
9.636137000000000000e+06
9.681665000000000000e+06
9.968162000000000000e+06
1.011592700000000000e+07
1.011782700000000000e+07
9.930674000000000000e+06
1.007141400000000000e+07
1.033170800000000000e+07
1.063583000000000000e+07
1.063472300000000000e+07
1.048642300000000000e+07
1.057796300000000000e+07
1.087052400000000000e+07
1.110101600000000000e+07
1.105949500000000000e+07
1.095170900000000000e+07
1.095658500000000000e+07
1.122039000000000000e+07
1.140424000000000000e+07
1.122935900000000000e+07
1.101984400000000000e+07
1.094010300000000000e+07
1.099100400000000000e+07
1.097549800000000000e+07
1.077456900000000000e+07
1.035129800000000000e+07
1.018371700000000000e+07
1.032912800000000000e+07
1.039314600000000000e+07
1.013383800000000000e+07
9.846893000000000000e+06
9.813265000000000000e+06
9.898349000000000000e+06
1.003820000000000000e+07
9.900955000000000000e+06
9.652113000000000000e+06
9.592777000000000000e+06
9.778880000000000000e+06
9.875846000000000000e+06
9.593601000000000000e+06
9.537890000000000000e+06
9.490314000000000000e+06
9.689875000000000000e+06
9.726567000000000000e+06
9.651348000000000000e+06
9.379297000000000000e+06
9.344645000000000000e+06
9.514195000000000000e+06
9.581188000000000000e+06
9.502468000000000000e+06
9.277269000000000000e+06
9.218377000000000000e+06
9.449203000000000000e+06
9.551948000000000000e+06
9.374280000000000000e+06
9.107944000000000000e+06
9.157040000000000000e+06
9.262406000000000000e+06
9.493577000000000000e+06
9.367541000000000000e+06
9.121225000000000000e+06
9.065935000000000000e+06
9.241905000000000000e+06
9.338197000000000000e+06
9.221651000000000000e+06
9.095346000000000000e+06
9.052892000000000000e+06
9.271002000000000000e+06
9.321616000000000000e+06
9.294513000000000000e+06
9.173632000000000000e+06
9.311439000000000000e+06
9.463786000000000000e+06
9.617004000000000000e+06
9.475828000000000000e+06
9.365661000000000000e+06
9.331363000000000000e+06
9.560119000000000000e+06
9.788100000000000000e+06
9.722642000000000000e+06
9.513223000000000000e+06
9.460745000000000000e+06
9.673656000000000000e+06
9.837785000000000000e+06
9.701393000000000000e+06
9.391683000000000000e+06
9.259216000000000000e+06
9.406074000000000000e+06
9.443525000000000000e+06
9.222974000000000000e+06
8.881813000000000000e+06
8.826613000000000000e+06
8.926783000000000000e+06
8.954505000000000000e+06
8.709856000000000000e+06
8.385282000000000000e+06
8.402287000000000000e+06
8.627527000000000000e+06
8.700227000000000000e+06
8.564425000000000000e+06
8.327384000000000000e+06
8.322048000000000000e+06
8.508859000000000000e+06
8.624349000000000000e+06
8.375062000000000000e+06
7.856820000000000000e+06
7.921697000000000000e+06
8.402306000000000000e+06
8.701868000000000000e+06
9.421742000000000000e+06
1.056635500000000000e+07
1.212439300000000000e+07
1.263688800000000000e+07
1.221414800000000000e+07
1.152352500000000000e+07
1.069845400000000000e+07
9.525023000000000000e+06
8.584648000000000000e+06
7.887366000000000000e+06
7.368713000000000000e+06
7.070021000000000000e+06
7.341917000000000000e+06
7.816725000000000000e+06
8.224245000000000000e+06
8.324667000000000000e+06
8.349638000000000000e+06
8.490735000000000000e+06
8.763093000000000000e+06
8.979068000000000000e+06
8.965692000000000000e+06
8.815733000000000000e+06
8.769253000000000000e+06
9.029272000000000000e+06
9.193739000000000000e+06
9.127624000000000000e+06
8.941218000000000000e+06
8.944364000000000000e+06
9.148573000000000000e+06
9.321840000000000000e+06
9.122172000000000000e+06
9.148215000000000000e+06
9.117556000000000000e+06
9.381347000000000000e+06
9.598195000000000000e+06
9.561400000000000000e+06
9.384073000000000000e+06
9.425735000000000000e+06
9.671488000000000000e+06
9.815632000000000000e+06
9.892116000000000000e+06
9.746170000000000000e+06
9.907492000000000000e+06
1.009283000000000000e+07
1.039216300000000000e+07
1.036473300000000000e+07
1.032822500000000000e+07
1.044353900000000000e+07
1.066951700000000000e+07
1.095764100000000000e+07
1.095771900000000000e+07
1.088169900000000000e+07
1.091072800000000000e+07
1.113981000000000000e+07
1.128574600000000000e+07
1.114503100000000000e+07
1.098705200000000000e+07
1.096548600000000000e+07
1.111472100000000000e+07
1.108878600000000000e+07
1.074709200000000000e+07
1.040150600000000000e+07
1.032342500000000000e+07
1.031499000000000000e+07
1.041142600000000000e+07
1.016001500000000000e+07
9.853159000000000000e+06
9.753751000000000000e+06
9.758798000000000000e+06
9.874103000000000000e+06
9.651592000000000000e+06
9.434449000000000000e+06
9.274345000000000000e+06
9.426411000000000000e+06
9.530533000000000000e+06
9.408984000000000000e+06
9.184501000000000000e+06
9.141678000000000000e+06
9.346267000000000000e+06
9.412170000000000000e+06
9.219717000000000000e+06
8.997204000000000000e+06
9.026824000000000000e+06
9.080677000000000000e+06
9.214938000000000000e+06
8.899057000000000000e+06
8.809864000000000000e+06
8.803647000000000000e+06
8.823641000000000000e+06
9.065645000000000000e+06
8.830753000000000000e+06
8.543046000000000000e+06
8.538521000000000000e+06
8.788950000000000000e+06
8.844723000000000000e+06
8.743437000000000000e+06
8.529515000000000000e+06
8.535995000000000000e+06
8.706841000000000000e+06
8.732541000000000000e+06
8.637389000000000000e+06
8.402552000000000000e+06
8.419253000000000000e+06
8.655992000000000000e+06
8.657746000000000000e+06
8.724618000000000000e+06
8.620119000000000000e+06
8.657225000000000000e+06
8.908385000000000000e+06
8.962363000000000000e+06
8.952982000000000000e+06
8.841340000000000000e+06
8.919982000000000000e+06
9.223265000000000000e+06
9.431468000000000000e+06
9.472597000000000000e+06
9.083746000000000000e+06
9.023369000000000000e+06
9.248486000000000000e+06
9.428563000000000000e+06
9.229807000000000000e+06
8.817610000000000000e+06
8.640102000000000000e+06
8.877519000000000000e+06
8.945702000000000000e+06
8.590438000000000000e+06
8.188261000000000000e+06
8.132784000000000000e+06
8.133904000000000000e+06
8.175319000000000000e+06
7.894469000000000000e+06
7.889868000000000000e+06
7.811818000000000000e+06
8.089729000000000000e+06
8.141122000000000000e+06
7.967349000000000000e+06
7.770736000000000000e+06
7.858983000000000000e+06
7.987367000000000000e+06
8.079675000000000000e+06
7.759344000000000000e+06
7.239769000000000000e+06
7.374064000000000000e+06
7.878668000000000000e+06
8.299222000000000000e+06
9.004107000000000000e+06
1.019895100000000000e+07
1.161725600000000000e+07
1.208219600000000000e+07
1.150673500000000000e+07
1.087167000000000000e+07
1.031096500000000000e+07
9.093338000000000000e+06
8.415235000000000000e+06
7.592299000000000000e+06
6.886773000000000000e+06
6.447600000000000000e+06
6.596198000000000000e+06
7.123865000000000000e+06
7.511896000000000000e+06
7.539225000000000000e+06
7.530896000000000000e+06
7.772258000000000000e+06
8.143382000000000000e+06
8.417095000000000000e+06
8.243663000000000000e+06
8.064532000000000000e+06
8.080401000000000000e+06
8.312009000000000000e+06
8.484106000000000000e+06
8.331606000000000000e+06
8.147412000000000000e+06
8.223908000000000000e+06
8.363605000000000000e+06
8.476830000000000000e+06
8.500133000000000000e+06
8.272284000000000000e+06
8.271441000000000000e+06
8.519910000000000000e+06
8.663117000000000000e+06
8.606251000000000000e+06
8.421184000000000000e+06
8.539291000000000000e+06
8.744694000000000000e+06
9.015656000000000000e+06
8.943057000000000000e+06
8.959521000000000000e+06
8.930730000000000000e+06
9.296304000000000000e+06
9.489683000000000000e+06
9.632886000000000000e+06
9.412576000000000000e+06
9.560888000000000000e+06
9.772188000000000000e+06
1.007939500000000000e+07
1.004683100000000000e+07
9.955713000000000000e+06
1.003120800000000000e+07
1.028382300000000000e+07
1.043304800000000000e+07
1.030568100000000000e+07
1.007501700000000000e+07
1.010319500000000000e+07
1.024542300000000000e+07
1.032330700000000000e+07
1.009406000000000000e+07
9.775723000000000000e+06
9.659500000000000000e+06
9.746279000000000000e+06
9.751271000000000000e+06
9.535533000000000000e+06
9.374844000000000000e+06
9.307826000000000000e+06
9.369598000000000000e+06
9.406182000000000000e+06
9.278125000000000000e+06
8.934499000000000000e+06
8.969497000000000000e+06
9.117047000000000000e+06
9.222020000000000000e+06
9.061803000000000000e+06
8.848210000000000000e+06
8.795265000000000000e+06
8.918819000000000000e+06
9.060004000000000000e+06
9.011323000000000000e+06
8.680794000000000000e+06
8.581099000000000000e+06
8.812670000000000000e+06
8.851562000000000000e+06
8.739338000000000000e+06
8.426807000000000000e+06
8.461505000000000000e+06
8.636553000000000000e+06
8.772544000000000000e+06
8.465446000000000000e+06
8.335468000000000000e+06
8.336230000000000000e+06
8.452094000000000000e+06
8.550705000000000000e+06
8.493379000000000000e+06
8.241598000000000000e+06
8.106903000000000000e+06
8.438303000000000000e+06
8.578910000000000000e+06
8.381226000000000000e+06
8.152636000000000000e+06
8.187378000000000000e+06
8.524348000000000000e+06
8.794086000000000000e+06
8.646848000000000000e+06
8.387682000000000000e+06
8.470108000000000000e+06
8.773740000000000000e+06
8.846272000000000000e+06
8.905382000000000000e+06
8.761316000000000000e+06
8.815577000000000000e+06
8.981954000000000000e+06
9.082214000000000000e+06
8.982136000000000000e+06
8.841820000000000000e+06
8.774948000000000000e+06
8.956110000000000000e+06
8.951267000000000000e+06
8.688390000000000000e+06
8.561642000000000000e+06
8.423892000000000000e+06
8.520950000000000000e+06
8.557649000000000000e+06
8.326942000000000000e+06
8.116984000000000000e+06
8.044806000000000000e+06
8.289192000000000000e+06
8.363178000000000000e+06
8.257544000000000000e+06
8.064018000000000000e+06
8.024159000000000000e+06
8.225695000000000000e+06
8.405482000000000000e+06
8.382377000000000000e+06
8.007733000000000000e+06
7.811458000000000000e+06
7.760856000000000000e+06
8.068079000000000000e+06
8.271348000000000000e+06
8.209786000000000000e+06
9.373235000000000000e+06
1.104045900000000000e+07
1.266778500000000000e+07
1.277063300000000000e+07
1.200371600000000000e+07
1.127242700000000000e+07
1.040277500000000000e+07
9.369998000000000000e+06
8.044640000000000000e+06
7.162312000000000000e+06
6.822785000000000000e+06
7.094362000000000000e+06
7.630947000000000000e+06
8.019303000000000000e+06
7.897910000000000000e+06
8.117355000000000000e+06
8.457901000000000000e+06
8.703766000000000000e+06
8.715762000000000000e+06
8.544227000000000000e+06
8.621544000000000000e+06
8.811321000000000000e+06
8.987100000000000000e+06
8.868143000000000000e+06
8.705131000000000000e+06
8.711075000000000000e+06
8.947722000000000000e+06
9.075663000000000000e+06
8.985778000000000000e+06
8.836184000000000000e+06
8.932099000000000000e+06
9.136466000000000000e+06
9.289323000000000000e+06
9.347558000000000000e+06
9.104811000000000000e+06
9.180686000000000000e+06
9.467634000000000000e+06
9.520274000000000000e+06
9.620832000000000000e+06
9.475177000000000000e+06
9.604364000000000000e+06
9.934049000000000000e+06
1.007476300000000000e+07
1.009418000000000000e+07
1.000491600000000000e+07
1.015282900000000000e+07
1.039689100000000000e+07
1.067823300000000000e+07
1.059534600000000000e+07
1.057315500000000000e+07
1.051994700000000000e+07
1.071688100000000000e+07
1.091340400000000000e+07
1.083122500000000000e+07
1.056897100000000000e+07
1.057176200000000000e+07
1.079321400000000000e+07
1.077113400000000000e+07
1.060639400000000000e+07
1.022901100000000000e+07
1.016462900000000000e+07
1.009173700000000000e+07
1.013447500000000000e+07
9.937747000000000000e+06
9.558835000000000000e+06
9.510866000000000000e+06
9.621979000000000000e+06
9.603378000000000000e+06
9.473869000000000000e+06
9.205574000000000000e+06
9.168594000000000000e+06
9.233593000000000000e+06
9.344139000000000000e+06
9.217753000000000000e+06
9.007273000000000000e+06
9.044038000000000000e+06
9.211074000000000000e+06
9.335570000000000000e+06
9.139254000000000000e+06
8.980331000000000000e+06
9.026605000000000000e+06
9.271133000000000000e+06
9.290226000000000000e+06
9.086295000000000000e+06
8.901253000000000000e+06
8.943195000000000000e+06
9.137296000000000000e+06
9.185967000000000000e+06
9.071212000000000000e+06
8.805320000000000000e+06
8.820005000000000000e+06
9.001485000000000000e+06
9.045774000000000000e+06
8.919970000000000000e+06
8.676241000000000000e+06
8.658766000000000000e+06
8.842545000000000000e+06
8.991837000000000000e+06
8.799111000000000000e+06
8.627586000000000000e+06
8.641104000000000000e+06
8.903924000000000000e+06
8.860224000000000000e+06
8.827891000000000000e+06
8.613196000000000000e+06
8.714615000000000000e+06
8.990461000000000000e+06
9.145129000000000000e+06
9.049592000000000000e+06
8.948182000000000000e+06
8.887077000000000000e+06
9.156769000000000000e+06
9.325684000000000000e+06
9.264988000000000000e+06
9.135751000000000000e+06
9.160378000000000000e+06
9.318992000000000000e+06
9.406933000000000000e+06
9.303327000000000000e+06
9.176546000000000000e+06
9.075658000000000000e+06
9.329536000000000000e+06
9.233733000000000000e+06
8.937792000000000000e+06
8.740050000000000000e+06
8.573285000000000000e+06
8.702013000000000000e+06
8.761330000000000000e+06
8.542291000000000000e+06
8.278390000000000000e+06
8.195989000000000000e+06
8.521833000000000000e+06
8.607735000000000000e+06
8.464252000000000000e+06
8.258125000000000000e+06
8.264557000000000000e+06
8.420114000000000000e+06
8.614793000000000000e+06
8.334839000000000000e+06
8.041007000000000000e+06
7.803092000000000000e+06
7.974487000000000000e+06
8.248661000000000000e+06
8.277414000000000000e+06
8.730833000000000000e+06
1.003178100000000000e+07
1.167577800000000000e+07
1.262064500000000000e+07
1.245177300000000000e+07
1.144274800000000000e+07
1.086686000000000000e+07
9.559724000000000000e+06
8.807532000000000000e+06
7.518126000000000000e+06
6.994818000000000000e+06
6.689104000000000000e+06
7.259055000000000000e+06
7.725190000000000000e+06
7.876307000000000000e+06
7.835095000000000000e+06
8.028752000000000000e+06
8.337988000000000000e+06
8.613714000000000000e+06
8.508262000000000000e+06
8.405199000000000000e+06
8.432291000000000000e+06
8.616223000000000000e+06
8.700111000000000000e+06
8.623098000000000000e+06
8.554867000000000000e+06
8.543340000000000000e+06
8.780634000000000000e+06
8.939643000000000000e+06
8.857137000000000000e+06
8.600438000000000000e+06
8.739736000000000000e+06
9.014032000000000000e+06
9.098790000000000000e+06
9.031424000000000000e+06
8.931302000000000000e+06
9.020483000000000000e+06
9.261930000000000000e+06
9.494511000000000000e+06
9.331689000000000000e+06
9.219063000000000000e+06
9.388039000000000000e+06
9.716307000000000000e+06
9.965222000000000000e+06
9.879308000000000000e+06
9.722567000000000000e+06
9.821077000000000000e+06
1.019509200000000000e+07
1.040135400000000000e+07
1.031228800000000000e+07
1.019900400000000000e+07
1.018318700000000000e+07
1.034961200000000000e+07
1.065640600000000000e+07
1.045267800000000000e+07
1.031533100000000000e+07
1.037885300000000000e+07
1.053069900000000000e+07
1.051812100000000000e+07
1.024351100000000000e+07
9.854785000000000000e+06
9.834178000000000000e+06
9.925321000000000000e+06
9.913640000000000000e+06
9.644107000000000000e+06
9.321687000000000000e+06
9.125352000000000000e+06
9.258782000000000000e+06
9.347437000000000000e+06
9.099020000000000000e+06
8.860682000000000000e+06
8.809619000000000000e+06
9.055446000000000000e+06
9.013846000000000000e+06
8.819806000000000000e+06
8.633385000000000000e+06
8.656653000000000000e+06
8.734964000000000000e+06
8.894301000000000000e+06
8.676783000000000000e+06
8.478636000000000000e+06
8.413661000000000000e+06
8.739782000000000000e+06
8.692660000000000000e+06
8.523231000000000000e+06
8.305115000000000000e+06
8.261961000000000000e+06
8.377293000000000000e+06
8.585143000000000000e+06
8.384994000000000000e+06
8.182665000000000000e+06
8.178727000000000000e+06
8.461688000000000000e+06
8.405548000000000000e+06
8.197068000000000000e+06
8.079732000000000000e+06
8.129599000000000000e+06
8.197210000000000000e+06
8.324205000000000000e+06
8.133926000000000000e+06
7.991426000000000000e+06
8.018963000000000000e+06
8.132968000000000000e+06
8.311765000000000000e+06
8.091609000000000000e+06
7.873193000000000000e+06
7.913602000000000000e+06
8.238023000000000000e+06
8.372747000000000000e+06
8.200239000000000000e+06
7.928570000000000000e+06
8.177377000000000000e+06
8.352191000000000000e+06
8.444549000000000000e+06
8.378627000000000000e+06
8.217081000000000000e+06
8.418483000000000000e+06
8.422567000000000000e+06
8.505171000000000000e+06
8.435507000000000000e+06
8.102580000000000000e+06
8.074082000000000000e+06
8.306575000000000000e+06
8.162707000000000000e+06
7.878820000000000000e+06
7.601233000000000000e+06
7.545463000000000000e+06
7.579255000000000000e+06
7.679021000000000000e+06
7.323308000000000000e+06
7.172868000000000000e+06
7.120046000000000000e+06
7.252401000000000000e+06
7.205460000000000000e+06
7.188007000000000000e+06
6.902148000000000000e+06
6.962892000000000000e+06
7.116211000000000000e+06
7.265145000000000000e+06
7.049592000000000000e+06
6.803911000000000000e+06
6.605294000000000000e+06
6.524257000000000000e+06
6.828239000000000000e+06
7.077756000000000000e+06
7.158796000000000000e+06
8.259617000000000000e+06
9.944575000000000000e+06
1.141085300000000000e+07
1.123647300000000000e+07
9.990184000000000000e+06
9.649971000000000000e+06
8.887566000000000000e+06
7.940503000000000000e+06
6.836073000000000000e+06
5.809304000000000000e+06
5.535338000000000000e+06
5.527776000000000000e+06
5.778983000000000000e+06
6.034026000000000000e+06
6.048205000000000000e+06
6.069602000000000000e+06
6.523746000000000000e+06
6.778487000000000000e+06
6.813728000000000000e+06
6.527970000000000000e+06
6.651561000000000000e+06
6.875629000000000000e+06
6.978737000000000000e+06
6.909198000000000000e+06
6.664177000000000000e+06
6.577872000000000000e+06
6.792132000000000000e+06
6.965803000000000000e+06
6.924843000000000000e+06
6.738844000000000000e+06
6.724439000000000000e+06
6.965838000000000000e+06
7.122160000000000000e+06
6.882298000000000000e+06
6.793947000000000000e+06
6.857990000000000000e+06
7.071643000000000000e+06
7.089687000000000000e+06
7.017275000000000000e+06
6.904856000000000000e+06
7.124920000000000000e+06
7.378246000000000000e+06
7.560649000000000000e+06
7.395127000000000000e+06
7.472788000000000000e+06
7.567422000000000000e+06
7.837250000000000000e+06
7.967977000000000000e+06
7.980381000000000000e+06
7.848308000000000000e+06
7.962893000000000000e+06
8.132540000000000000e+06
8.296180000000000000e+06
8.240846000000000000e+06
8.049356000000000000e+06
8.053078000000000000e+06
8.219769000000000000e+06
8.305854000000000000e+06
8.074511000000000000e+06
7.699948000000000000e+06
7.651023000000000000e+06
7.790744000000000000e+06
7.698100000000000000e+06
7.428804000000000000e+06
7.099748000000000000e+06
7.069426000000000000e+06
7.143478000000000000e+06
7.156640000000000000e+06
7.009810000000000000e+06
6.639976000000000000e+06
6.541195000000000000e+06
6.697391000000000000e+06
6.815040000000000000e+06
6.581099000000000000e+06
6.366612000000000000e+06
6.393031000000000000e+06
6.461059000000000000e+06
6.561171000000000000e+06
6.379773000000000000e+06
6.195196000000000000e+06
6.201352000000000000e+06
6.375509000000000000e+06
6.396676000000000000e+06
6.305195000000000000e+06
6.115021000000000000e+06
6.052432000000000000e+06
6.212125000000000000e+06
6.229954000000000000e+06
6.091095000000000000e+06
5.889129000000000000e+06
5.889289000000000000e+06
6.181133000000000000e+06
6.200003000000000000e+06
6.052681000000000000e+06
5.871764000000000000e+06
5.843682000000000000e+06
6.080519000000000000e+06
6.107369000000000000e+06
5.957401000000000000e+06
5.748488000000000000e+06
5.791716000000000000e+06
5.956867000000000000e+06
6.031412000000000000e+06
5.824474000000000000e+06
5.771395000000000000e+06
5.809619000000000000e+06
6.183751000000000000e+06
6.316683000000000000e+06
6.165966000000000000e+06
6.056828000000000000e+06
6.159525000000000000e+06
6.439310000000000000e+06
6.606499000000000000e+06
6.467286000000000000e+06
6.354381000000000000e+06
6.259757000000000000e+06
6.523597000000000000e+06
6.626465000000000000e+06
6.524598000000000000e+06
6.289750000000000000e+06
6.180376000000000000e+06
6.283060000000000000e+06
6.249649000000000000e+06
5.952969000000000000e+06
5.581618000000000000e+06
5.585632000000000000e+06
5.733404000000000000e+06
5.640220000000000000e+06
5.365464000000000000e+06
5.180112000000000000e+06
5.154763000000000000e+06
5.293864000000000000e+06
5.350846000000000000e+06
5.267558000000000000e+06
5.044127000000000000e+06
5.042703000000000000e+06
5.168051000000000000e+06
5.207196000000000000e+06
5.076380000000000000e+06
4.700554000000000000e+06
4.404589000000000000e+06
4.727782000000000000e+06
5.040796000000000000e+06
5.121231000000000000e+06
5.653875000000000000e+06
7.060631000000000000e+06
8.761130000000000000e+06
9.352348000000000000e+06
8.950873000000000000e+06
7.913524000000000000e+06
7.541767000000000000e+06
6.376240000000000000e+06
5.295494000000000000e+06
4.214758000000000000e+06
3.548111000000000000e+06
3.376690000000000000e+06
3.860541000000000000e+06
4.379717000000000000e+06
4.396141000000000000e+06
4.454011000000000000e+06
4.684457000000000000e+06
5.004444000000000000e+06
5.301926000000000000e+06
5.279624000000000000e+06
5.084942000000000000e+06
5.254032000000000000e+06
5.443760000000000000e+06
5.605206000000000000e+06
5.487115000000000000e+06
5.390882000000000000e+06
5.496148000000000000e+06
5.787310000000000000e+06
5.827796000000000000e+06
5.740912000000000000e+06
5.656370000000000000e+06
5.739397000000000000e+06
6.008837000000000000e+06
6.193844000000000000e+06
6.022513000000000000e+06
5.895424000000000000e+06
5.934813000000000000e+06
6.368416000000000000e+06
6.423617000000000000e+06
6.410501000000000000e+06
6.302934000000000000e+06
6.419213000000000000e+06
6.700590000000000000e+06
6.911667000000000000e+06
6.866134000000000000e+06
6.731909000000000000e+06
6.913267000000000000e+06
7.185937000000000000e+06
7.425293000000000000e+06
7.317822000000000000e+06
7.256424000000000000e+06
7.312356000000000000e+06
7.594221000000000000e+06
7.721926000000000000e+06
7.490328000000000000e+06
7.370680000000000000e+06
7.355451000000000000e+06
7.455365000000000000e+06
7.514166000000000000e+06
7.223333000000000000e+06
6.914553000000000000e+06
6.848621000000000000e+06
6.831334000000000000e+06
6.746388000000000000e+06
6.594573000000000000e+06
6.267004000000000000e+06
6.210446000000000000e+06
6.232857000000000000e+06
6.299580000000000000e+06
6.037656000000000000e+06
5.814111000000000000e+06
5.807736000000000000e+06
5.924990000000000000e+06
5.945944000000000000e+06
5.776632000000000000e+06
5.535450000000000000e+06
5.533263000000000000e+06
5.734646000000000000e+06
5.767800000000000000e+06
5.674984000000000000e+06
5.409544000000000000e+06
5.464037000000000000e+06
5.661757000000000000e+06
5.742169000000000000e+06
5.529513000000000000e+06
5.369681000000000000e+06
5.428155000000000000e+06
5.626621000000000000e+06
5.700701000000000000e+06
5.565858000000000000e+06
5.379193000000000000e+06
5.269932000000000000e+06
5.556688000000000000e+06
5.612552000000000000e+06
5.508651000000000000e+06
5.278019000000000000e+06
5.291039000000000000e+06
5.647133000000000000e+06
5.658828000000000000e+06
5.491923000000000000e+06
5.299870000000000000e+06
5.347217000000000000e+06
5.515927000000000000e+06
5.690999000000000000e+06
5.480007000000000000e+06
5.266703000000000000e+06
5.379864000000000000e+06
5.719019000000000000e+06
5.734471000000000000e+06
5.754077000000000000e+06
5.689293000000000000e+06
5.813955000000000000e+06
6.045019000000000000e+06
6.227220000000000000e+06
6.017480000000000000e+06
5.961553000000000000e+06
6.146141000000000000e+06
6.408891000000000000e+06
6.609419000000000000e+06
6.447456000000000000e+06
6.211755000000000000e+06
6.361206000000000000e+06
6.618658000000000000e+06
6.699570000000000000e+06
6.484354000000000000e+06
6.166177000000000000e+06
6.164164000000000000e+06
6.304142000000000000e+06
6.355320000000000000e+06
6.107931000000000000e+06
5.849685000000000000e+06
5.751020000000000000e+06
5.823791000000000000e+06
5.891580000000000000e+06
5.734958000000000000e+06
5.483334000000000000e+06
5.635469000000000000e+06
5.783771000000000000e+06
5.904265000000000000e+06
5.650115000000000000e+06
5.456446000000000000e+06
5.519096000000000000e+06
5.839263000000000000e+06
5.715614000000000000e+06
5.261023000000000000e+06
5.034755000000000000e+06
5.366403000000000000e+06
5.786688000000000000e+06
6.374156000000000000e+06
7.502254000000000000e+06
8.822370000000000000e+06
9.673815000000000000e+06
9.847682000000000000e+06
9.159077000000000000e+06
8.492075000000000000e+06
6.743224000000000000e+06
5.849563000000000000e+06
4.983460000000000000e+06
4.507645000000000000e+06
4.175396000000000000e+06
4.247899000000000000e+06
4.627858000000000000e+06
5.127762000000000000e+06
5.443339000000000000e+06
5.378617000000000000e+06
5.344980000000000000e+06
5.524581000000000000e+06
5.776796000000000000e+06
5.987886000000000000e+06
5.819530000000000000e+06
5.673056000000000000e+06
5.754643000000000000e+06
6.058657000000000000e+06
6.087203000000000000e+06
6.003527000000000000e+06
5.736857000000000000e+06
5.878100000000000000e+06
6.220937000000000000e+06
6.332484000000000000e+06
6.177446000000000000e+06
5.997527000000000000e+06
6.151557000000000000e+06
6.437264000000000000e+06
6.607184000000000000e+06
6.478294000000000000e+06
6.290093000000000000e+06
6.431450000000000000e+06
6.750907000000000000e+06
6.845942000000000000e+06
6.915670000000000000e+06
6.844669000000000000e+06
6.983965000000000000e+06
7.254640000000000000e+06
7.503101000000000000e+06
7.432916000000000000e+06
7.459950000000000000e+06
7.599778000000000000e+06
7.932595000000000000e+06
8.006936000000000000e+06
7.959732000000000000e+06
7.847784000000000000e+06
7.931506000000000000e+06
8.319061000000000000e+06
8.450301000000000000e+06
8.265978000000000000e+06
8.003655000000000000e+06
7.997729000000000000e+06
8.016845000000000000e+06
8.074599000000000000e+06
7.765909000000000000e+06
7.437705000000000000e+06
7.437616000000000000e+06
7.370993000000000000e+06
7.344533000000000000e+06
7.152190000000000000e+06
6.876332000000000000e+06
6.845719000000000000e+06
7.009979000000000000e+06
7.058974000000000000e+06
6.843801000000000000e+06
6.588801000000000000e+06
6.673425000000000000e+06
6.838322000000000000e+06
6.942614000000000000e+06
6.666660000000000000e+06
6.414082000000000000e+06
6.462935000000000000e+06
6.746517000000000000e+06
6.724715000000000000e+06
6.635568000000000000e+06
6.419991000000000000e+06
6.394163000000000000e+06
6.597064000000000000e+06
6.715515000000000000e+06
6.492844000000000000e+06
6.350001000000000000e+06
6.319025000000000000e+06
6.557043000000000000e+06
6.628179000000000000e+06
6.535545000000000000e+06
6.359816000000000000e+06
6.352549000000000000e+06
6.625600000000000000e+06
6.610509000000000000e+06
6.496718000000000000e+06
6.282239000000000000e+06
6.317091000000000000e+06
6.629031000000000000e+06
6.693115000000000000e+06
6.506988000000000000e+06
6.299457000000000000e+06
6.389945000000000000e+06
6.630118000000000000e+06
6.705288000000000000e+06
6.514024000000000000e+06
6.444822000000000000e+06
6.570804000000000000e+06
6.783048000000000000e+06
6.782661000000000000e+06
6.627906000000000000e+06
6.493037000000000000e+06
6.519211000000000000e+06
6.966085000000000000e+06
7.079783000000000000e+06
6.984975000000000000e+06
6.748013000000000000e+06
6.937175000000000000e+06
7.226121000000000000e+06
7.313060000000000000e+06
7.228010000000000000e+06
7.032219000000000000e+06
7.188797000000000000e+06
7.442823000000000000e+06
7.505235000000000000e+06
7.258349000000000000e+06
7.220264000000000000e+06
7.357541000000000000e+06
7.392046000000000000e+06
7.399746000000000000e+06
7.034623000000000000e+06
6.859716000000000000e+06
6.842866000000000000e+06
6.951157000000000000e+06
7.089545000000000000e+06
6.826940000000000000e+06
6.557324000000000000e+06
6.461809000000000000e+06
6.678446000000000000e+06
6.816994000000000000e+06
6.651861000000000000e+06
6.414160000000000000e+06
6.465233000000000000e+06
6.735622000000000000e+06
6.689976000000000000e+06
6.537007000000000000e+06
6.294511000000000000e+06
6.208258000000000000e+06
6.171169000000000000e+06
6.302855000000000000e+06
6.349776000000000000e+06
6.533713000000000000e+06
7.311904000000000000e+06
8.926377000000000000e+06
1.041250500000000000e+07
1.058080100000000000e+07
9.777484000000000000e+06
9.290723000000000000e+06
9.138370000000000000e+06
7.934659000000000000e+06
6.837444000000000000e+06
5.753152000000000000e+06
5.375738000000000000e+06
5.278743000000000000e+06
5.499428000000000000e+06
5.630894000000000000e+06
5.781611000000000000e+06
6.031961000000000000e+06
6.432221000000000000e+06
6.620076000000000000e+06
6.693447000000000000e+06
6.649190000000000000e+06
6.675829000000000000e+06
6.986881000000000000e+06
7.163016000000000000e+06
6.986529000000000000e+06
6.816539000000000000e+06
6.955968000000000000e+06
7.281750000000000000e+06
7.389396000000000000e+06
7.261608000000000000e+06
7.139981000000000000e+06
7.246603000000000000e+06
7.425434000000000000e+06
7.594034000000000000e+06
7.471531000000000000e+06
7.346452000000000000e+06
7.565609000000000000e+06
7.752353000000000000e+06
7.939629000000000000e+06
7.827340000000000000e+06
7.751405000000000000e+06
7.944834000000000000e+06
8.259800000000000000e+06
8.397755000000000000e+06
8.342999000000000000e+06
8.330121000000000000e+06
8.606806000000000000e+06
8.926854000000000000e+06
9.129261000000000000e+06
9.120793000000000000e+06
9.032459000000000000e+06
9.173929000000000000e+06
9.430987000000000000e+06
9.643751000000000000e+06
9.582348000000000000e+06
9.450277000000000000e+06
9.473362000000000000e+06
9.641882000000000000e+06
9.784282000000000000e+06
9.591291000000000000e+06
9.325120000000000000e+06
9.268306000000000000e+06
9.327316000000000000e+06
9.303473000000000000e+06
8.976207000000000000e+06
8.585883000000000000e+06
8.638297000000000000e+06
8.799086000000000000e+06
8.800263000000000000e+06
8.462332000000000000e+06
8.178836000000000000e+06
8.155092000000000000e+06
8.354212000000000000e+06
8.313431000000000000e+06
8.106338000000000000e+06
7.880257000000000000e+06
7.889545000000000000e+06
8.054993000000000000e+06
8.218693000000000000e+06
7.976370000000000000e+06
7.709911000000000000e+06
7.791231000000000000e+06
7.999967000000000000e+06
8.131728000000000000e+06
7.855440000000000000e+06
7.605329000000000000e+06
7.647036000000000000e+06
7.931388000000000000e+06
7.952465000000000000e+06
7.761279000000000000e+06
7.597722000000000000e+06
7.655651000000000000e+06
7.868863000000000000e+06
7.860651000000000000e+06
7.681776000000000000e+06
7.509841000000000000e+06
7.604163000000000000e+06
7.819457000000000000e+06
7.951141000000000000e+06
7.687426000000000000e+06
7.543258000000000000e+06
7.650569000000000000e+06
7.871462000000000000e+06
7.927941000000000000e+06
7.750751000000000000e+06
7.578573000000000000e+06
7.738214000000000000e+06
7.969126000000000000e+06
7.883933000000000000e+06
7.747105000000000000e+06
7.679789000000000000e+06
7.829856000000000000e+06
8.247413000000000000e+06
8.339810000000000000e+06
8.071618000000000000e+06
7.950617000000000000e+06
8.059720000000000000e+06
8.354114000000000000e+06
8.472736000000000000e+06
8.440908000000000000e+06
8.308827000000000000e+06
8.402404000000000000e+06
8.516774000000000000e+06
8.646156000000000000e+06
8.498433000000000000e+06
8.263298000000000000e+06
8.387471000000000000e+06
8.483906000000000000e+06
8.332384000000000000e+06
8.213009000000000000e+06
7.895841000000000000e+06
7.755759000000000000e+06
7.950246000000000000e+06
7.953846000000000000e+06
7.652915000000000000e+06
7.487863000000000000e+06
7.573552000000000000e+06
7.782101000000000000e+06
7.840015000000000000e+06
7.671359000000000000e+06
7.514431000000000000e+06
7.527309000000000000e+06
7.807452000000000000e+06
7.851668000000000000e+06
7.698147000000000000e+06
7.327085000000000000e+06
7.094499000000000000e+06
7.220312000000000000e+06
7.596635000000000000e+06
7.596685000000000000e+06
7.880927000000000000e+06
9.107658000000000000e+06
1.089813000000000000e+07
1.204801100000000000e+07
1.189043300000000000e+07
1.082039100000000000e+07
1.045857200000000000e+07
9.134556000000000000e+06
8.337748000000000000e+06
7.048880000000000000e+06
6.175173000000000000e+06
6.124398000000000000e+06
6.641573000000000000e+06
7.120676000000000000e+06
7.214595000000000000e+06
7.225486000000000000e+06
7.487421000000000000e+06
7.910431000000000000e+06
8.152616000000000000e+06
8.105317000000000000e+06
7.962866000000000000e+06
8.035288000000000000e+06
8.405060000000000000e+06
8.481112000000000000e+06
8.319421000000000000e+06
8.228121000000000000e+06
8.316806000000000000e+06
8.560470000000000000e+06
8.717242000000000000e+06
8.595161000000000000e+06
8.468232000000000000e+06
8.544394000000000000e+06
8.788507000000000000e+06
8.933950000000000000e+06
8.822491000000000000e+06
8.709212000000000000e+06
8.896513000000000000e+06
9.024801000000000000e+06
9.229716000000000000e+06
9.102622000000000000e+06
9.032487000000000000e+06
9.284610000000000000e+06
9.617088000000000000e+06
9.815416000000000000e+06
9.569726000000000000e+06
9.525224000000000000e+06
9.762132000000000000e+06
9.923434000000000000e+06
1.023646200000000000e+07
1.012030200000000000e+07
1.004850000000000000e+07
1.011506700000000000e+07
1.049911500000000000e+07
1.058942200000000000e+07
1.033567800000000000e+07
1.022585500000000000e+07
1.024421500000000000e+07
1.047638900000000000e+07
1.047144900000000000e+07
1.017248800000000000e+07
9.825335000000000000e+06
9.881614000000000000e+06
9.891700000000000000e+06
9.869606000000000000e+06
9.590342000000000000e+06
9.237649000000000000e+06
9.249628000000000000e+06
9.441513000000000000e+06
9.411165000000000000e+06
9.127533000000000000e+06
8.886370000000000000e+06
8.864019000000000000e+06
9.030915000000000000e+06
9.040030000000000000e+06
8.933402000000000000e+06
8.567652000000000000e+06
8.749305000000000000e+06
8.944355000000000000e+06
9.011730000000000000e+06
8.690358000000000000e+06
8.530109000000000000e+06
8.610491000000000000e+06
8.805538000000000000e+06
8.919414000000000000e+06
8.673980000000000000e+06
8.514875000000000000e+06
8.566555000000000000e+06
8.824172000000000000e+06
8.922845000000000000e+06
8.727363000000000000e+06
8.521064000000000000e+06
8.685239000000000000e+06
8.827237000000000000e+06
8.785969000000000000e+06
8.626473000000000000e+06
8.340895000000000000e+06
8.604402000000000000e+06
8.696138000000000000e+06
8.819703000000000000e+06
8.614040000000000000e+06
8.349869000000000000e+06
8.469265000000000000e+06
8.646837000000000000e+06
8.758947000000000000e+06
8.510956000000000000e+06
8.471765000000000000e+06
8.569734000000000000e+06
8.721788000000000000e+06
8.856945000000000000e+06
8.631639000000000000e+06
8.499357000000000000e+06
8.571165000000000000e+06
8.931553000000000000e+06
9.159067000000000000e+06
8.889107000000000000e+06
8.738765000000000000e+06
8.889385000000000000e+06
9.132500000000000000e+06
9.152420000000000000e+06
9.163977000000000000e+06
9.105405000000000000e+06
9.335004000000000000e+06
9.397990000000000000e+06
9.462306000000000000e+06
9.249212000000000000e+06
9.209529000000000000e+06
9.164998000000000000e+06
9.332313000000000000e+06
9.420731000000000000e+06
9.052625000000000000e+06
8.792251000000000000e+06
8.646085000000000000e+06
8.839598000000000000e+06
8.932208000000000000e+06
8.530560000000000000e+06
8.219421000000000000e+06
8.252987000000000000e+06
8.559822000000000000e+06
8.564258000000000000e+06
8.499524000000000000e+06
8.253993000000000000e+06
8.266053000000000000e+06
8.441910000000000000e+06
8.559880000000000000e+06
8.319534000000000000e+06
8.226200000000000000e+06
8.161875000000000000e+06
8.025757000000000000e+06
8.095982000000000000e+06
8.205267000000000000e+06
8.307106000000000000e+06
8.934423000000000000e+06
1.042221900000000000e+07
1.172496100000000000e+07
1.223173000000000000e+07
1.169319200000000000e+07
1.118406300000000000e+07
1.106353900000000000e+07
9.761410000000000000e+06
8.776569000000000000e+06
7.571854000000000000e+06
6.945819000000000000e+06
6.988812000000000000e+06
7.218625000000000000e+06
7.380369000000000000e+06
7.462691000000000000e+06
7.649149000000000000e+06
8.118751000000000000e+06
8.235567000000000000e+06
8.331714000000000000e+06
8.159300000000000000e+06
8.371678000000000000e+06
8.600258000000000000e+06
8.753724000000000000e+06
8.558879000000000000e+06
8.398244000000000000e+06
8.418410000000000000e+06
8.812426000000000000e+06
8.779322000000000000e+06
8.633423000000000000e+06
8.649242000000000000e+06
8.630765000000000000e+06
8.874124000000000000e+06
9.088817000000000000e+06
8.838994000000000000e+06
8.773030000000000000e+06
8.779465000000000000e+06
9.301832000000000000e+06
9.208341000000000000e+06
9.244993000000000000e+06
9.194485000000000000e+06
9.202420000000000000e+06
9.538846000000000000e+06
9.672011000000000000e+06
9.785100000000000000e+06
9.521444000000000000e+06
9.774526000000000000e+06
1.013388700000000000e+07
1.037504500000000000e+07
1.034742400000000000e+07
1.030684900000000000e+07
1.047682400000000000e+07
1.070791600000000000e+07
1.083798600000000000e+07
1.070756400000000000e+07
1.060992600000000000e+07
1.072114700000000000e+07
1.098060900000000000e+07
1.106016400000000000e+07
1.073158300000000000e+07
1.047014800000000000e+07
1.025715100000000000e+07
1.044186200000000000e+07
1.046520700000000000e+07
1.012147200000000000e+07
9.771800000000000000e+06
9.705754000000000000e+06
9.948457000000000000e+06
9.859090000000000000e+06
9.513595000000000000e+06
9.201011000000000000e+06
9.241611000000000000e+06
9.501527000000000000e+06
9.393214000000000000e+06
9.255282000000000000e+06
9.020015000000000000e+06
9.156403000000000000e+06
9.304488000000000000e+06
9.516607000000000000e+06
9.110812000000000000e+06
8.966890000000000000e+06
8.938952000000000000e+06
9.111709000000000000e+06
9.170182000000000000e+06
9.039972000000000000e+06
8.807160000000000000e+06
8.882750000000000000e+06
8.960330000000000000e+06
9.126664000000000000e+06
8.841578000000000000e+06
8.581714000000000000e+06
8.734273000000000000e+06
9.039100000000000000e+06
9.014568000000000000e+06
8.848470000000000000e+06
8.686278000000000000e+06
8.626120000000000000e+06
8.980042000000000000e+06
9.042306000000000000e+06
8.839612000000000000e+06
8.670009000000000000e+06
8.643815000000000000e+06
8.973130000000000000e+06
9.052298000000000000e+06
8.823448000000000000e+06
8.831558000000000000e+06
8.852257000000000000e+06
9.041229000000000000e+06
9.223895000000000000e+06
8.983834000000000000e+06
8.840033000000000000e+06
9.157844000000000000e+06
9.477247000000000000e+06
9.490862000000000000e+06
9.470325000000000000e+06
9.247783000000000000e+06
9.499495000000000000e+06
9.738666000000000000e+06
9.823293000000000000e+06
9.838881000000000000e+06
9.548224000000000000e+06
9.863607000000000000e+06
1.004497600000000000e+07
9.894094000000000000e+06
9.854602000000000000e+06
9.700891000000000000e+06
9.776013000000000000e+06
9.913762000000000000e+06
9.662605000000000000e+06
9.681864000000000000e+06
9.260550000000000000e+06
9.231358000000000000e+06
9.335837000000000000e+06
9.496146000000000000e+06
9.062308000000000000e+06
8.954656000000000000e+06
8.953136000000000000e+06
9.083615000000000000e+06
9.191010000000000000e+06
9.024505000000000000e+06
8.839187000000000000e+06
8.903557000000000000e+06
8.936402000000000000e+06
9.129686000000000000e+06
9.044113000000000000e+06
8.645383000000000000e+06
8.432863000000000000e+06
8.422768000000000000e+06
8.844596000000000000e+06
8.910053000000000000e+06
8.974350000000000000e+06
1.008440400000000000e+07
1.192765100000000000e+07
1.320465100000000000e+07
1.297723700000000000e+07
1.164716300000000000e+07
1.144770100000000000e+07
1.069266700000000000e+07
9.754834000000000000e+06
8.524689000000000000e+06
7.621313000000000000e+06
7.337150000000000000e+06
7.469924000000000000e+06
7.683459000000000000e+06
7.813337000000000000e+06
7.807502000000000000e+06
8.091892000000000000e+06
8.565387000000000000e+06
8.828034000000000000e+06
8.710957000000000000e+06
8.582388000000000000e+06
8.665038000000000000e+06
9.014641000000000000e+06
9.058048000000000000e+06
8.979015000000000000e+06
8.876708000000000000e+06
8.917294000000000000e+06
9.180317000000000000e+06
9.274640000000000000e+06
9.167890000000000000e+06
8.939889000000000000e+06
9.122287000000000000e+06
9.326104000000000000e+06
9.427282000000000000e+06
9.198015000000000000e+06
9.115105000000000000e+06
9.302885000000000000e+06
9.548387000000000000e+06
9.690876000000000000e+06
9.646077000000000000e+06
9.511006000000000000e+06
9.653389000000000000e+06
9.922125000000000000e+06
1.007128100000000000e+07
1.014825800000000000e+07
1.003465600000000000e+07
1.029007600000000000e+07
1.063248500000000000e+07
1.084623400000000000e+07
1.057809100000000000e+07
1.071704900000000000e+07
1.077883100000000000e+07
1.107354900000000000e+07
1.126522700000000000e+07
1.113441600000000000e+07
1.099432200000000000e+07
1.106102600000000000e+07
1.120487000000000000e+07
1.119017500000000000e+07
1.094399000000000000e+07
1.069272900000000000e+07
1.069051000000000000e+07
1.077790000000000000e+07
1.066745800000000000e+07
1.030324500000000000e+07
1.008455000000000000e+07
1.005422400000000000e+07
1.012459300000000000e+07
1.013855100000000000e+07
9.792248000000000000e+06
9.553376000000000000e+06
9.560435000000000000e+06
9.764638000000000000e+06
9.770783000000000000e+06
9.566318000000000000e+06
9.355252000000000000e+06
9.454408000000000000e+06
9.613379000000000000e+06
9.661608000000000000e+06
9.430500000000000000e+06
9.243495000000000000e+06
9.445755000000000000e+06
9.396871000000000000e+06
9.561899000000000000e+06
9.423654000000000000e+06
9.150332000000000000e+06
9.235549000000000000e+06
9.432745000000000000e+06
9.410989000000000000e+06
9.147489000000000000e+06
8.949529000000000000e+06
9.107209000000000000e+06
9.188554000000000000e+06
9.260415000000000000e+06
9.146544000000000000e+06
8.889829000000000000e+06
8.992973000000000000e+06
9.248604000000000000e+06
9.226461000000000000e+06
9.073996000000000000e+06
8.907401000000000000e+06
8.974594000000000000e+06
9.137897000000000000e+06
9.315406000000000000e+06
9.246141000000000000e+06
9.121405000000000000e+06
9.204943000000000000e+06
9.541296000000000000e+06
9.691764000000000000e+06
9.546904000000000000e+06
9.391983000000000000e+06
9.584526000000000000e+06
9.821141000000000000e+06
9.923428000000000000e+06
9.677648000000000000e+06
9.446531000000000000e+06
9.691292000000000000e+06
9.807647000000000000e+06
9.919724000000000000e+06
9.581171000000000000e+06
9.273281000000000000e+06
9.324779000000000000e+06
9.439645000000000000e+06
9.323491000000000000e+06
9.101354000000000000e+06
8.782287000000000000e+06
8.799626000000000000e+06
8.897833000000000000e+06
8.981612000000000000e+06
8.782449000000000000e+06
8.646128000000000000e+06
8.730712000000000000e+06
8.909221000000000000e+06
9.021062000000000000e+06
8.776576000000000000e+06
8.621739000000000000e+06
8.725757000000000000e+06
8.857680000000000000e+06
8.605062000000000000e+06
8.319061000000000000e+06
8.384114000000000000e+06
8.686070000000000000e+06
9.279817000000000000e+06
1.056555900000000000e+07
1.191905700000000000e+07
1.297076100000000000e+07
1.309120700000000000e+07
1.239038100000000000e+07
1.199991100000000000e+07
1.024537200000000000e+07
9.053998000000000000e+06
7.899388000000000000e+06
7.593433000000000000e+06
7.406307000000000000e+06
7.292737000000000000e+06
7.439835000000000000e+06
7.823429000000000000e+06
8.217702000000000000e+06
8.402158000000000000e+06
8.337262000000000000e+06
8.303750000000000000e+06
8.424925000000000000e+06
8.587978000000000000e+06
8.784246000000000000e+06
8.613944000000000000e+06
8.375450000000000000e+06
8.520184000000000000e+06
8.792752000000000000e+06
8.862792000000000000e+06
8.576479000000000000e+06
8.600446000000000000e+06
8.679950000000000000e+06
9.011750000000000000e+06
9.114419000000000000e+06
8.965676000000000000e+06
8.757008000000000000e+06
8.882132000000000000e+06
9.169630000000000000e+06
9.361927000000000000e+06
9.229810000000000000e+06
9.081254000000000000e+06
9.270771000000000000e+06
9.592280000000000000e+06
9.706682000000000000e+06
9.668224000000000000e+06
9.544787000000000000e+06
9.718199000000000000e+06
1.003813600000000000e+07
1.026204100000000000e+07
1.010457000000000000e+07
1.005868900000000000e+07
1.011547200000000000e+07
1.050359400000000000e+07
1.062237000000000000e+07
1.052469100000000000e+07
1.030953600000000000e+07
1.036709600000000000e+07
1.059707800000000000e+07
1.070082600000000000e+07
1.042974000000000000e+07
1.017278300000000000e+07
1.015205600000000000e+07
1.024121800000000000e+07
1.016995600000000000e+07
9.804279000000000000e+06
9.588092000000000000e+06
9.486468000000000000e+06
9.611652000000000000e+06
9.552278000000000000e+06
9.196481000000000000e+06
9.054574000000000000e+06
8.957830000000000000e+06
9.146878000000000000e+06
9.225657000000000000e+06
8.982994000000000000e+06
8.712951000000000000e+06
8.865076000000000000e+06
8.907773000000000000e+06
8.956182000000000000e+06
8.840591000000000000e+06
8.566763000000000000e+06
8.721760000000000000e+06
8.910675000000000000e+06
8.929781000000000000e+06
8.638368000000000000e+06
8.451822000000000000e+06
8.480029000000000000e+06
8.680986000000000000e+06
8.708957000000000000e+06
8.564749000000000000e+06
8.318688000000000000e+06
8.313594000000000000e+06
8.415122000000000000e+06
8.454327000000000000e+06
8.188599000000000000e+06
8.009024000000000000e+06
8.092376000000000000e+06
8.254196000000000000e+06
8.281664000000000000e+06
8.067261000000000000e+06
7.849298000000000000e+06
7.979512000000000000e+06
8.039460000000000000e+06
8.036806000000000000e+06
7.883309000000000000e+06
7.623241000000000000e+06
7.830042000000000000e+06
8.033865000000000000e+06
8.292596000000000000e+06
8.049062000000000000e+06
7.900279000000000000e+06
8.024086000000000000e+06
8.194944000000000000e+06
8.348104000000000000e+06
8.066718000000000000e+06
7.897279000000000000e+06
8.114604000000000000e+06
8.380109000000000000e+06
8.378316000000000000e+06
8.098145000000000000e+06
7.926938000000000000e+06
8.071698000000000000e+06
8.171618000000000000e+06
8.182155000000000000e+06
7.834333000000000000e+06
7.519412000000000000e+06
7.502755000000000000e+06
7.685362000000000000e+06
7.594272000000000000e+06
7.298714000000000000e+06
6.929017000000000000e+06
6.885570000000000000e+06
6.992115000000000000e+06
7.254137000000000000e+06
6.931609000000000000e+06
6.671439000000000000e+06
6.742246000000000000e+06
6.904929000000000000e+06
6.998111000000000000e+06
6.718573000000000000e+06
6.635937000000000000e+06
6.576835000000000000e+06
6.613654000000000000e+06
6.358980000000000000e+06
6.388962000000000000e+06
6.437454000000000000e+06
6.776301000000000000e+06
8.055742000000000000e+06
9.541558000000000000e+06
1.064359300000000000e+07
1.039864200000000000e+07
9.746033000000000000e+06
9.331202000000000000e+06
8.581146000000000000e+06
7.279934000000000000e+06
5.905172000000000000e+06
5.191990000000000000e+06
5.043715000000000000e+06
5.108973000000000000e+06
5.152610000000000000e+06
5.316169000000000000e+06
5.506532000000000000e+06
5.959501000000000000e+06
6.182307000000000000e+06
6.007981000000000000e+06
5.955905000000000000e+06
6.077398000000000000e+06
6.390428000000000000e+06
6.471019000000000000e+06
6.187687000000000000e+06
6.138550000000000000e+06
6.115805000000000000e+06
6.345435000000000000e+06
6.527162000000000000e+06
6.344637000000000000e+06
6.153724000000000000e+06
6.241130000000000000e+06
6.438600000000000000e+06
6.526771000000000000e+06
6.337468000000000000e+06
6.091627000000000000e+06
6.297562000000000000e+06
6.527286000000000000e+06
6.627747000000000000e+06
6.461645000000000000e+06
6.304520000000000000e+06
6.436205000000000000e+06
6.748089000000000000e+06
6.890666000000000000e+06
6.798393000000000000e+06
6.677636000000000000e+06
6.926844000000000000e+06
7.189455000000000000e+06
7.280928000000000000e+06
7.184454000000000000e+06
7.037767000000000000e+06
7.298234000000000000e+06
7.494834000000000000e+06
7.663581000000000000e+06
7.436773000000000000e+06
7.310757000000000000e+06
7.288849000000000000e+06
7.641526000000000000e+06
7.564197000000000000e+06
7.285439000000000000e+06
7.071575000000000000e+06
7.089230000000000000e+06
7.092182000000000000e+06
6.977801000000000000e+06
6.610175000000000000e+06
6.300829000000000000e+06
6.268416000000000000e+06
6.387365000000000000e+06
6.293770000000000000e+06
5.899595000000000000e+06
5.663775000000000000e+06
5.716123000000000000e+06
5.740321000000000000e+06
5.777206000000000000e+06
5.498942000000000000e+06
5.290799000000000000e+06
5.448700000000000000e+06
5.544858000000000000e+06
5.517850000000000000e+06
5.246348000000000000e+06
5.018696000000000000e+06
5.087137000000000000e+06
5.193568000000000000e+06
5.330679000000000000e+06
5.099342000000000000e+06
4.834422000000000000e+06
4.844233000000000000e+06
5.038587000000000000e+06
5.098336000000000000e+06
4.762720000000000000e+06
4.647394000000000000e+06
4.635608000000000000e+06
4.859469000000000000e+06
4.907595000000000000e+06
4.748482000000000000e+06
4.500243000000000000e+06
4.543495000000000000e+06
4.782626000000000000e+06
4.799842000000000000e+06
4.662098000000000000e+06
4.323785000000000000e+06
4.483898000000000000e+06
4.704894000000000000e+06
4.724928000000000000e+06
4.466249000000000000e+06
4.464096000000000000e+06
4.644821000000000000e+06
4.961011000000000000e+06
4.992304000000000000e+06
4.586737000000000000e+06
4.694021000000000000e+06
4.773258000000000000e+06
5.015633000000000000e+06
5.216211000000000000e+06
5.060400000000000000e+06
5.027583000000000000e+06
4.975669000000000000e+06
5.076528000000000000e+06
5.344980000000000000e+06
5.121275000000000000e+06
4.903349000000000000e+06
4.825538000000000000e+06
4.930133000000000000e+06
4.914124000000000000e+06
4.626139000000000000e+06
4.342351000000000000e+06
4.503659000000000000e+06
4.461186000000000000e+06
4.494625000000000000e+06
4.160284000000000000e+06
4.008249000000000000e+06
4.104299000000000000e+06
4.387828000000000000e+06
4.303823000000000000e+06
4.057326000000000000e+06
3.934017000000000000e+06
4.026821000000000000e+06
4.248930000000000000e+06
4.384350000000000000e+06
4.027209000000000000e+06
3.460729000000000000e+06
3.313867000000000000e+06
3.817084000000000000e+06
4.257981000000000000e+06
4.564607000000000000e+06
5.501276000000000000e+06
7.072977000000000000e+06
8.555951000000000000e+06
8.601227000000000000e+06
7.209158000000000000e+06
6.728538000000000000e+06
5.843724000000000000e+06
5.128945000000000000e+06
4.321557000000000000e+06
3.143353000000000000e+06
2.594600000000000000e+06
2.724763000000000000e+06
2.967598000000000000e+06
3.475321000000000000e+06
3.400944000000000000e+06
3.477822000000000000e+06
3.807493000000000000e+06
4.171275000000000000e+06
4.343771000000000000e+06
4.220001000000000000e+06
4.173246000000000000e+06
4.279131000000000000e+06
4.540334000000000000e+06
4.524562000000000000e+06
4.454033000000000000e+06
4.360467000000000000e+06
4.454641000000000000e+06
4.743280000000000000e+06
4.837714000000000000e+06
4.616136000000000000e+06
4.435863000000000000e+06
4.606203000000000000e+06
4.837317000000000000e+06
4.985385000000000000e+06
4.933175000000000000e+06
4.833503000000000000e+06
4.888120000000000000e+06
5.162836000000000000e+06
5.245386000000000000e+06
5.143365000000000000e+06
5.180683000000000000e+06
5.336580000000000000e+06
5.614853000000000000e+06
5.808127000000000000e+06
5.760774000000000000e+06
5.728105000000000000e+06
5.947697000000000000e+06
6.075322000000000000e+06
6.339525000000000000e+06
6.200404000000000000e+06
6.136651000000000000e+06
6.288970000000000000e+06
6.573373000000000000e+06
6.588332000000000000e+06
6.445674000000000000e+06
6.323563000000000000e+06
6.411830000000000000e+06
6.583599000000000000e+06
6.597319000000000000e+06
6.244472000000000000e+06
5.979876000000000000e+06
6.006248000000000000e+06
6.079389000000000000e+06
6.015747000000000000e+06
5.700703000000000000e+06
5.479038000000000000e+06
5.459858000000000000e+06
5.502826000000000000e+06
5.541201000000000000e+06
5.283205000000000000e+06
5.076605000000000000e+06
5.017366000000000000e+06
5.311409000000000000e+06
5.283203000000000000e+06
5.049186000000000000e+06
4.851304000000000000e+06
5.026054000000000000e+06
5.169578000000000000e+06
5.203087000000000000e+06
4.950982000000000000e+06
4.863256000000000000e+06
4.969090000000000000e+06
5.174257000000000000e+06
5.197248000000000000e+06
5.005410000000000000e+06
4.848447000000000000e+06
4.877281000000000000e+06
5.108177000000000000e+06
5.161611000000000000e+06
4.965191000000000000e+06
4.745642000000000000e+06
4.847822000000000000e+06
5.191173000000000000e+06
5.147022000000000000e+06
4.919158000000000000e+06
4.710946000000000000e+06
4.861080000000000000e+06
5.074522000000000000e+06
5.063570000000000000e+06
4.897946000000000000e+06
4.838012000000000000e+06
5.142350000000000000e+06
5.338800000000000000e+06
5.338634000000000000e+06
5.175668000000000000e+06
5.036981000000000000e+06
5.259909000000000000e+06
5.478318000000000000e+06
5.695716000000000000e+06
5.518498000000000000e+06
5.379871000000000000e+06
5.456183000000000000e+06
5.653793000000000000e+06
5.775808000000000000e+06
5.588805000000000000e+06
5.420478000000000000e+06
5.430536000000000000e+06
5.528566000000000000e+06
5.529122000000000000e+06
5.236614000000000000e+06
4.934295000000000000e+06
5.038707000000000000e+06
5.057310000000000000e+06
4.973662000000000000e+06
4.803027000000000000e+06
4.693749000000000000e+06
4.724424000000000000e+06
4.932316000000000000e+06
4.981982000000000000e+06
4.782302000000000000e+06
4.664956000000000000e+06
4.815308000000000000e+06
4.986579000000000000e+06
4.986907000000000000e+06
4.726469000000000000e+06
4.347261000000000000e+06
4.305980000000000000e+06
4.779800000000000000e+06
5.015020000000000000e+06
5.295603000000000000e+06
6.401652000000000000e+06
8.184434000000000000e+06
9.657882000000000000e+06
9.859765000000000000e+06
8.743040000000000000e+06
8.107538000000000000e+06
6.646029000000000000e+06
5.864978000000000000e+06
4.612881000000000000e+06
3.814211000000000000e+06
3.432893000000000000e+06
3.816237000000000000e+06
4.374316000000000000e+06
4.791701000000000000e+06
4.836609000000000000e+06
4.809754000000000000e+06
5.043384000000000000e+06
5.524075000000000000e+06
5.573376000000000000e+06
5.419757000000000000e+06
5.354668000000000000e+06
5.476453000000000000e+06
5.749640000000000000e+06
5.833970000000000000e+06
5.732493000000000000e+06
5.619078000000000000e+06
5.721142000000000000e+06
6.030780000000000000e+06
6.116715000000000000e+06
5.918952000000000000e+06
5.880187000000000000e+06
6.005988000000000000e+06
6.215988000000000000e+06
6.309395000000000000e+06
6.198835000000000000e+06
6.109229000000000000e+06
6.336779000000000000e+06
6.537202000000000000e+06
6.687313000000000000e+06
6.593680000000000000e+06
6.599568000000000000e+06
6.776776000000000000e+06
7.096289000000000000e+06
7.287799000000000000e+06
7.235431000000000000e+06
7.109354000000000000e+06
7.362500000000000000e+06
7.672023000000000000e+06
7.796595000000000000e+06
7.629548000000000000e+06
7.551275000000000000e+06
7.762161000000000000e+06
8.001888000000000000e+06
8.071964000000000000e+06
7.877372000000000000e+06
7.765634000000000000e+06
7.815411000000000000e+06
7.929495000000000000e+06
7.929582000000000000e+06
7.600212000000000000e+06
7.332480000000000000e+06
7.293898000000000000e+06
7.464750000000000000e+06
7.332677000000000000e+06
6.963777000000000000e+06
6.721852000000000000e+06
6.754233000000000000e+06
6.895844000000000000e+06
6.886701000000000000e+06
6.619708000000000000e+06
6.442787000000000000e+06
6.464467000000000000e+06
6.601466000000000000e+06
6.719899000000000000e+06
6.484601000000000000e+06
6.350392000000000000e+06
6.433285000000000000e+06
6.615735000000000000e+06
6.710918000000000000e+06
6.423618000000000000e+06
6.326709000000000000e+06
6.441426000000000000e+06
6.543329000000000000e+06
6.583047000000000000e+06
6.396051000000000000e+06
6.321256000000000000e+06
6.304994000000000000e+06
6.530547000000000000e+06
6.581763000000000000e+06
6.385178000000000000e+06
6.245370000000000000e+06
6.361865000000000000e+06
6.585696000000000000e+06
6.562629000000000000e+06
6.407700000000000000e+06
6.183699000000000000e+06
6.270856000000000000e+06
6.527238000000000000e+06
6.557064000000000000e+06
6.320318000000000000e+06
6.274105000000000000e+06
6.298342000000000000e+06
6.571420000000000000e+06
6.552787000000000000e+06
6.541239000000000000e+06
6.285721000000000000e+06
6.458084000000000000e+06
6.722765000000000000e+06
6.931663000000000000e+06
6.791914000000000000e+06
6.681278000000000000e+06
6.820552000000000000e+06
7.077468000000000000e+06
7.285791000000000000e+06
7.131697000000000000e+06
7.058345000000000000e+06
7.288379000000000000e+06
7.441891000000000000e+06
7.503202000000000000e+06
7.285746000000000000e+06
7.124006000000000000e+06
7.340833000000000000e+06
7.463945000000000000e+06
7.379474000000000000e+06
7.054733000000000000e+06
6.893372000000000000e+06
6.891034000000000000e+06
7.067524000000000000e+06
6.972606000000000000e+06
6.587264000000000000e+06
6.447105000000000000e+06
6.482566000000000000e+06
6.615890000000000000e+06
6.703866000000000000e+06
6.509168000000000000e+06
6.308596000000000000e+06
6.437040000000000000e+06
6.605884000000000000e+06
6.640578000000000000e+06
6.478677000000000000e+06
6.285195000000000000e+06
6.351260000000000000e+06
6.222270000000000000e+06
6.324746000000000000e+06
6.388625000000000000e+06
6.324488000000000000e+06
7.195768000000000000e+06
8.899405000000000000e+06
1.031368400000000000e+07
1.073626300000000000e+07
1.039095200000000000e+07
9.682706000000000000e+06
9.428424000000000000e+06
7.969426000000000000e+06
6.938309000000000000e+06
5.747002000000000000e+06
5.418070000000000000e+06
5.413366000000000000e+06
5.740582000000000000e+06
6.020684000000000000e+06
6.069005000000000000e+06
6.333472000000000000e+06
6.618955000000000000e+06
6.849584000000000000e+06
6.732132000000000000e+06
6.691601000000000000e+06
6.790439000000000000e+06
7.025221000000000000e+06
7.055891000000000000e+06
6.933948000000000000e+06
6.774385000000000000e+06
7.023086000000000000e+06
7.224665000000000000e+06
7.228674000000000000e+06
7.157830000000000000e+06
7.025630000000000000e+06
7.182056000000000000e+06
7.367871000000000000e+06
7.544583000000000000e+06
7.366961000000000000e+06
7.277733000000000000e+06
7.446351000000000000e+06
7.697827000000000000e+06
7.735270000000000000e+06
7.691883000000000000e+06
7.680253000000000000e+06
7.839429000000000000e+06
8.199758000000000000e+06
8.312332000000000000e+06
8.194316000000000000e+06
8.126657000000000000e+06
8.394839000000000000e+06
8.644832000000000000e+06
8.872720000000000000e+06
8.847658000000000000e+06
8.728784000000000000e+06
8.946679000000000000e+06
9.230027000000000000e+06
9.366222000000000000e+06
9.169718000000000000e+06
9.117038000000000000e+06
9.238395000000000000e+06
9.442101000000000000e+06
9.461670000000000000e+06
9.117721000000000000e+06
8.947438000000000000e+06
8.896001000000000000e+06
9.094435000000000000e+06
8.934740000000000000e+06
8.601551000000000000e+06
8.305516000000000000e+06
8.312821000000000000e+06
8.421035000000000000e+06
8.239280000000000000e+06
8.093129000000000000e+06
7.840346000000000000e+06
7.853234000000000000e+06
8.051731000000000000e+06
8.053097000000000000e+06
7.795999000000000000e+06
7.569957000000000000e+06
7.713044000000000000e+06
7.833850000000000000e+06
7.898836000000000000e+06
7.641597000000000000e+06
7.459641000000000000e+06
7.599105000000000000e+06
7.778880000000000000e+06
7.748341000000000000e+06
7.594946000000000000e+06
7.458291000000000000e+06
7.650205000000000000e+06
7.736668000000000000e+06
7.749930000000000000e+06
7.552076000000000000e+06
7.426153000000000000e+06
7.425565000000000000e+06
7.670838000000000000e+06
7.714882000000000000e+06
7.407060000000000000e+06
7.414932000000000000e+06
7.503432000000000000e+06
7.655399000000000000e+06
7.579889000000000000e+06
7.313841000000000000e+06
7.182574000000000000e+06
7.353637000000000000e+06
7.617366000000000000e+06
7.613613000000000000e+06
7.376964000000000000e+06
7.279192000000000000e+06
7.304957000000000000e+06
7.564890000000000000e+06
7.513565000000000000e+06
7.407042000000000000e+06
7.291797000000000000e+06
7.479806000000000000e+06
7.784031000000000000e+06
7.854852000000000000e+06
7.729875000000000000e+06
7.580338000000000000e+06
7.763960000000000000e+06
8.038022000000000000e+06
8.194309000000000000e+06
8.008809000000000000e+06
8.043559000000000000e+06
8.172582000000000000e+06
8.353035000000000000e+06
8.422361000000000000e+06
8.287987000000000000e+06
8.128114000000000000e+06
8.236999000000000000e+06
8.411736000000000000e+06
8.204989000000000000e+06
8.019881000000000000e+06
7.825569000000000000e+06
7.839240000000000000e+06
7.937423000000000000e+06
7.970902000000000000e+06
7.565862000000000000e+06
7.384523000000000000e+06
7.471910000000000000e+06
7.804083000000000000e+06
7.697495000000000000e+06
7.531108000000000000e+06
7.325870000000000000e+06
7.560058000000000000e+06
7.705960000000000000e+06
7.840946000000000000e+06
7.509683000000000000e+06
7.406504000000000000e+06
7.233166000000000000e+06
7.172368000000000000e+06
7.389707000000000000e+06
7.355382000000000000e+06
7.618085000000000000e+06
8.672001000000000000e+06
1.035842200000000000e+07
1.170274300000000000e+07
1.150123100000000000e+07
1.045308400000000000e+07
1.026312100000000000e+07
9.794904000000000000e+06
8.752332000000000000e+06
7.614506000000000000e+06
6.589617000000000000e+06
6.297928000000000000e+06
6.343886000000000000e+06
6.525520000000000000e+06
6.697046000000000000e+06
6.750294000000000000e+06
7.017930000000000000e+06
7.435359000000000000e+06
7.542632000000000000e+06
7.611188000000000000e+06
7.491261000000000000e+06
7.694449000000000000e+06
7.915018000000000000e+06
7.973084000000000000e+06
7.882928000000000000e+06
7.751109000000000000e+06
7.859973000000000000e+06
8.056738000000000000e+06
8.230743000000000000e+06
8.057451000000000000e+06
7.953297000000000000e+06
8.101256000000000000e+06
8.298702000000000000e+06
8.377180000000000000e+06
8.247482000000000000e+06
8.085990000000000000e+06
8.258010000000000000e+06
8.566480000000000000e+06
8.557406000000000000e+06
8.455070000000000000e+06
8.443892000000000000e+06
8.543679000000000000e+06
8.840866000000000000e+06
8.943710000000000000e+06
8.947905000000000000e+06
8.942328000000000000e+06
9.183058000000000000e+06
9.473883000000000000e+06
9.523616000000000000e+06
9.460323000000000000e+06
9.391158000000000000e+06
9.649184000000000000e+06
9.868426000000000000e+06
9.944621000000000000e+06
9.788866000000000000e+06
9.712966000000000000e+06
9.865944000000000000e+06
1.006362500000000000e+07
1.011761100000000000e+07
9.903268000000000000e+06
9.610216000000000000e+06
9.659697000000000000e+06
9.747658000000000000e+06
9.570449000000000000e+06
9.331264000000000000e+06
9.042093000000000000e+06
9.026624000000000000e+06
9.120475000000000000e+06
9.071145000000000000e+06
8.810906000000000000e+06
8.610962000000000000e+06
8.610378000000000000e+06
8.734260000000000000e+06
8.733600000000000000e+06
8.533770000000000000e+06
8.338894000000000000e+06
8.463358000000000000e+06
8.545689000000000000e+06
8.455713000000000000e+06
8.414761000000000000e+06
8.237129000000000000e+06
8.390593000000000000e+06
8.452821000000000000e+06
8.597968000000000000e+06
8.357169000000000000e+06
8.247415000000000000e+06
8.275122000000000000e+06
8.553152000000000000e+06
8.509833000000000000e+06
8.301982000000000000e+06
8.195082000000000000e+06
8.416463000000000000e+06
8.490251000000000000e+06
8.495676000000000000e+06
8.365874000000000000e+06
8.107549000000000000e+06
8.164133000000000000e+06
8.506847000000000000e+06
8.501859000000000000e+06
8.310842000000000000e+06
8.187934000000000000e+06
8.285137000000000000e+06
8.493671000000000000e+06
8.465235000000000000e+06
8.305916000000000000e+06
8.156690000000000000e+06
8.304382000000000000e+06
8.499818000000000000e+06
8.542273000000000000e+06
8.412107000000000000e+06
8.393721000000000000e+06
8.621230000000000000e+06
8.751783000000000000e+06
8.877720000000000000e+06
8.717796000000000000e+06
8.689929000000000000e+06
8.769994000000000000e+06
9.077029000000000000e+06
9.150166000000000000e+06
8.990652000000000000e+06
8.836350000000000000e+06
8.852182000000000000e+06
9.157787000000000000e+06
9.129189000000000000e+06
8.961508000000000000e+06
8.732783000000000000e+06
8.700207000000000000e+06
8.832384000000000000e+06
8.775740000000000000e+06
8.437557000000000000e+06
8.222297000000000000e+06
8.246327000000000000e+06
8.443566000000000000e+06
8.364838000000000000e+06
8.144327000000000000e+06
7.957197000000000000e+06
8.060128000000000000e+06
8.217216000000000000e+06
8.265794000000000000e+06
8.092184000000000000e+06
7.885348000000000000e+06
7.976503000000000000e+06
8.221586000000000000e+06
8.134939000000000000e+06
7.857752000000000000e+06
7.384092000000000000e+06
7.710324000000000000e+06
8.138974000000000000e+06
8.301376000000000000e+06
8.967183000000000000e+06
1.024344200000000000e+07
1.182746100000000000e+07
1.239415300000000000e+07
1.182161300000000000e+07
1.106468700000000000e+07
1.040959200000000000e+07
9.196918000000000000e+06
8.236483000000000000e+06
7.345600000000000000e+06
6.653904000000000000e+06
6.476965000000000000e+06
6.919445000000000000e+06
7.470261000000000000e+06
7.680503000000000000e+06
7.754557000000000000e+06
7.722024000000000000e+06
7.971517000000000000e+06
8.340771000000000000e+06
8.356163000000000000e+06
8.255015000000000000e+06
8.172159000000000000e+06
8.313023000000000000e+06
8.505496000000000000e+06
8.541606000000000000e+06
8.361649000000000000e+06
8.326162000000000000e+06
8.435496000000000000e+06
8.674288000000000000e+06
8.647634000000000000e+06
8.471258000000000000e+06
8.370183000000000000e+06
8.497117000000000000e+06
8.845719000000000000e+06
8.878419000000000000e+06
8.723509000000000000e+06
8.641871000000000000e+06
8.839460000000000000e+06
9.003829000000000000e+06
9.189367000000000000e+06
9.028645000000000000e+06
9.024195000000000000e+06
9.203681000000000000e+06
9.570787000000000000e+06
9.634679000000000000e+06
9.563273000000000000e+06
9.560858000000000000e+06
9.796970000000000000e+06
1.013988900000000000e+07
1.011824400000000000e+07
1.006053900000000000e+07
1.000501300000000000e+07
1.020074900000000000e+07
1.034091200000000000e+07
1.045733700000000000e+07
1.018921200000000000e+07
1.009154500000000000e+07
1.015098000000000000e+07
1.028945400000000000e+07
1.019667400000000000e+07
9.844188000000000000e+06
9.656837000000000000e+06
9.591001000000000000e+06
9.764386000000000000e+06
9.587617000000000000e+06
9.293858000000000000e+06
9.109323000000000000e+06
9.127215000000000000e+06
9.223093000000000000e+06
9.110340000000000000e+06
8.832819000000000000e+06
8.712577000000000000e+06
8.843536000000000000e+06
8.997011000000000000e+06
8.886347000000000000e+06
8.751683000000000000e+06
8.648888000000000000e+06
8.656431000000000000e+06
8.945838000000000000e+06
8.789113000000000000e+06
8.571898000000000000e+06
8.488588000000000000e+06
8.557788000000000000e+06
8.750542000000000000e+06
8.737523000000000000e+06
8.407068000000000000e+06
8.303241000000000000e+06
8.426036000000000000e+06
8.552116000000000000e+06
8.549374000000000000e+06
8.333763000000000000e+06
8.226467000000000000e+06
8.325802000000000000e+06
8.526809000000000000e+06
8.460594000000000000e+06
8.234307000000000000e+06
8.155866000000000000e+06
8.255921000000000000e+06
8.461467000000000000e+06
8.435453000000000000e+06
8.258993000000000000e+06
8.093311000000000000e+06
8.293176000000000000e+06
8.450697000000000000e+06
8.516225000000000000e+06
8.216323000000000000e+06
8.184065000000000000e+06
8.286951000000000000e+06
8.612242000000000000e+06
8.593867000000000000e+06
8.389811000000000000e+06
8.209755000000000000e+06
8.304045000000000000e+06
8.624809000000000000e+06
8.641176000000000000e+06
8.455580000000000000e+06
8.422118000000000000e+06
8.700778000000000000e+06
8.943939000000000000e+06
8.911855000000000000e+06
8.714279000000000000e+06
8.581422000000000000e+06
8.764861000000000000e+06
9.051698000000000000e+06
9.174936000000000000e+06
9.028347000000000000e+06
8.944461000000000000e+06
9.023385000000000000e+06
9.243603000000000000e+06
9.355255000000000000e+06
9.125220000000000000e+06
8.959364000000000000e+06
8.974078000000000000e+06
9.104081000000000000e+06
9.029683000000000000e+06
8.773587000000000000e+06
8.548447000000000000e+06
8.587937000000000000e+06
8.754560000000000000e+06
8.664952000000000000e+06
8.313021000000000000e+06
8.199969000000000000e+06
8.251328000000000000e+06
8.476294000000000000e+06
8.542853000000000000e+06
8.286025000000000000e+06
8.187227000000000000e+06
8.217652000000000000e+06
8.512896000000000000e+06
8.497715000000000000e+06
8.175331000000000000e+06
7.891595000000000000e+06
7.866913000000000000e+06
8.163485000000000000e+06
8.449201000000000000e+06
8.444576000000000000e+06
9.297358000000000000e+06
1.080181400000000000e+07
1.245024300000000000e+07
1.260427200000000000e+07
1.181587800000000000e+07
1.099953800000000000e+07
1.037256600000000000e+07
9.455435000000000000e+06
8.338647000000000000e+06
7.352307000000000000e+06
6.942239000000000000e+06
6.935825000000000000e+06
7.504327000000000000e+06
7.844068000000000000e+06
7.868307000000000000e+06
7.895432000000000000e+06
8.128317000000000000e+06
8.380739000000000000e+06
8.540576000000000000e+06
8.382749000000000000e+06
8.248508000000000000e+06
8.382413000000000000e+06
8.692856000000000000e+06
8.676953000000000000e+06
8.512580000000000000e+06
8.387756000000000000e+06
8.525973000000000000e+06
8.804202000000000000e+06
8.790130000000000000e+06
8.649300000000000000e+06
8.613037000000000000e+06
8.705337000000000000e+06
8.939858000000000000e+06
8.964221000000000000e+06
8.761875000000000000e+06
8.745949000000000000e+06
8.948412000000000000e+06
9.078434000000000000e+06
9.274930000000000000e+06
9.050460000000000000e+06
9.008850000000000000e+06
9.151696000000000000e+06
9.417284000000000000e+06
9.619605000000000000e+06
9.510683000000000000e+06
9.448625000000000000e+06
9.690845000000000000e+06
1.005443900000000000e+07
1.012864900000000000e+07
9.961313000000000000e+06
9.941846000000000000e+06
1.012347800000000000e+07
1.036467100000000000e+07
1.050951200000000000e+07
1.032163600000000000e+07
1.018439300000000000e+07
1.034690600000000000e+07
1.052253700000000000e+07
1.044724200000000000e+07
1.013372500000000000e+07
9.896152000000000000e+06
9.897602000000000000e+06
9.965344000000000000e+06
9.826587000000000000e+06
9.559011000000000000e+06
9.276017000000000000e+06
9.183580000000000000e+06
9.293105000000000000e+06
9.242771000000000000e+06
8.896215000000000000e+06
8.825708000000000000e+06
8.888024000000000000e+06
8.875705000000000000e+06
8.872228000000000000e+06
8.630089000000000000e+06
8.454523000000000000e+06
8.604147000000000000e+06
8.782099000000000000e+06
8.637041000000000000e+06
8.480691000000000000e+06
8.245762000000000000e+06
8.369958000000000000e+06
8.544525000000000000e+06
8.507008000000000000e+06
8.267639000000000000e+06
8.160390000000000000e+06
8.250303000000000000e+06
8.431499000000000000e+06
8.443136000000000000e+06
8.159487000000000000e+06
8.080101000000000000e+06
8.164677000000000000e+06
8.387955000000000000e+06
8.314535000000000000e+06
8.183657000000000000e+06
8.049182000000000000e+06
8.177346000000000000e+06
8.297094000000000000e+06
8.256772000000000000e+06
8.057603000000000000e+06
7.937797000000000000e+06
8.152014000000000000e+06
8.251043000000000000e+06
8.249384000000000000e+06
8.074820000000000000e+06
7.896928000000000000e+06
7.977608000000000000e+06
8.221103000000000000e+06
8.184233000000000000e+06
8.004791000000000000e+06
7.843107000000000000e+06
7.963001000000000000e+06
8.126199000000000000e+06
8.054145000000000000e+06
7.876691000000000000e+06
7.805569000000000000e+06
7.935429000000000000e+06
8.164522000000000000e+06
8.207973000000000000e+06
8.071656000000000000e+06
7.909487000000000000e+06
8.085061000000000000e+06
8.278166000000000000e+06
8.350094000000000000e+06
8.205501000000000000e+06
8.127998000000000000e+06
8.286809000000000000e+06
8.570430000000000000e+06
8.462369000000000000e+06
8.289613000000000000e+06
8.154535000000000000e+06
8.316940000000000000e+06
8.501406000000000000e+06
8.247898000000000000e+06
7.934756000000000000e+06
7.752113000000000000e+06
7.726939000000000000e+06
7.926306000000000000e+06
7.794705000000000000e+06
7.405270000000000000e+06
7.141509000000000000e+06
7.136972000000000000e+06
7.472077000000000000e+06
7.322664000000000000e+06
7.087389000000000000e+06
6.903242000000000000e+06
7.119198000000000000e+06
7.270618000000000000e+06
7.191993000000000000e+06
6.939632000000000000e+06
6.886565000000000000e+06
6.950130000000000000e+06
6.954846000000000000e+06
6.585807000000000000e+06
6.357773000000000000e+06
6.596315000000000000e+06
6.815473000000000000e+06
7.655659000000000000e+06
8.784378000000000000e+06
9.961130000000000000e+06
1.049223700000000000e+07
1.028231500000000000e+07
9.744058000000000000e+06
9.375573000000000000e+06
7.733747000000000000e+06
6.881499000000000000e+06
6.024031000000000000e+06
5.486427000000000000e+06
5.212961000000000000e+06
4.949533000000000000e+06
5.085621000000000000e+06
5.498964000000000000e+06
5.737662000000000000e+06
5.865269000000000000e+06
5.850824000000000000e+06
5.830617000000000000e+06
6.076393000000000000e+06
6.341661000000000000e+06
6.273417000000000000e+06
6.088174000000000000e+06
5.960802000000000000e+06
6.134309000000000000e+06
6.366002000000000000e+06
6.352650000000000000e+06
6.111094000000000000e+06
5.992479000000000000e+06
6.151593000000000000e+06
6.374543000000000000e+06
6.349965000000000000e+06
6.063285000000000000e+06
5.921765000000000000e+06
6.124114000000000000e+06
6.309640000000000000e+06
6.304184000000000000e+06
6.145793000000000000e+06
6.005844000000000000e+06
6.160455000000000000e+06
6.370889000000000000e+06
6.311349000000000000e+06
6.251921000000000000e+06
6.245732000000000000e+06
6.428104000000000000e+06
6.753346000000000000e+06
6.738060000000000000e+06
6.647539000000000000e+06
6.732170000000000000e+06
6.915677000000000000e+06
7.113367000000000000e+06
7.076299000000000000e+06
6.932136000000000000e+06
6.832592000000000000e+06
6.987963000000000000e+06
7.192779000000000000e+06
7.139453000000000000e+06
6.910883000000000000e+06
6.710817000000000000e+06
6.874691000000000000e+06
6.941436000000000000e+06
6.669567000000000000e+06
6.418228000000000000e+06
6.121903000000000000e+06
6.154428000000000000e+06
6.132500000000000000e+06
5.945952000000000000e+06
5.607475000000000000e+06
5.419020000000000000e+06
5.368601000000000000e+06
5.578169000000000000e+06
5.446012000000000000e+06
5.136352000000000000e+06
4.915672000000000000e+06
5.021492000000000000e+06
5.197292000000000000e+06
4.987122000000000000e+06
4.841099000000000000e+06
4.667664000000000000e+06
4.736599000000000000e+06
4.924925000000000000e+06
4.757839000000000000e+06
4.475515000000000000e+06
4.448922000000000000e+06
4.533001000000000000e+06
4.658682000000000000e+06
4.601557000000000000e+06
4.428404000000000000e+06
4.174281000000000000e+06
4.324201000000000000e+06
4.419656000000000000e+06
4.335973000000000000e+06
4.055425000000000000e+06
3.929988000000000000e+06
4.051792000000000000e+06
4.185038000000000000e+06
4.139018000000000000e+06
3.830011000000000000e+06
3.667555000000000000e+06
3.755728000000000000e+06
3.805859000000000000e+06
3.736625000000000000e+06
3.538843000000000000e+06
3.334923000000000000e+06
3.397751000000000000e+06
3.496169000000000000e+06
3.389625000000000000e+06
3.212434000000000000e+06
3.113405000000000000e+06
3.252071000000000000e+06
3.483391000000000000e+06
3.481635000000000000e+06
3.222849000000000000e+06
3.078589000000000000e+06
3.234396000000000000e+06
3.474595000000000000e+06
3.483650000000000000e+06
3.269989000000000000e+06
3.277154000000000000e+06
3.330822000000000000e+06
3.490344000000000000e+06
3.364798000000000000e+06
3.213739000000000000e+06
3.109184000000000000e+06
3.244158000000000000e+06
3.259925000000000000e+06
3.127214000000000000e+06
2.775903000000000000e+06
2.667661000000000000e+06
2.660357000000000000e+06
2.749363000000000000e+06
2.607698000000000000e+06
2.231776000000000000e+06
2.043370000000000000e+06
2.200507000000000000e+06
2.426716000000000000e+06
2.309708000000000000e+06
2.104589000000000000e+06
1.926478000000000000e+06
2.108187000000000000e+06
2.308949000000000000e+06
2.227168000000000000e+06
2.017953000000000000e+06
1.858839000000000000e+06
1.911072000000000000e+06
1.729651000000000000e+06
1.797769000000000000e+06
1.805080000000000000e+06
1.866299000000000000e+06
2.775869000000000000e+06
4.207215000000000000e+06
5.690545000000000000e+06
6.212025000000000000e+06
5.790880000000000000e+06
5.101216000000000000e+06
4.935884000000000000e+06
3.488619000000000000e+06
2.404324000000000000e+06
1.120192000000000000e+06
7.510930000000000000e+05
6.001770000000000000e+05
7.334660000000000000e+05
1.111105000000000000e+06
1.267321000000000000e+06
1.647923000000000000e+06
1.892210000000000000e+06
2.111948000000000000e+06
2.067480000000000000e+06
2.040624000000000000e+06
2.274299000000000000e+06
2.464453000000000000e+06
2.397456000000000000e+06
2.388499000000000000e+06
2.206722000000000000e+06
2.390139000000000000e+06
2.635031000000000000e+06
2.607386000000000000e+06
2.395080000000000000e+06
2.428625000000000000e+06
2.518943000000000000e+06
2.691226000000000000e+06
2.766906000000000000e+06
2.718540000000000000e+06
2.517202000000000000e+06
2.739054000000000000e+06
3.023324000000000000e+06
2.917310000000000000e+06
2.829843000000000000e+06
2.834805000000000000e+06
3.087848000000000000e+06
3.351697000000000000e+06
3.452467000000000000e+06
3.416881000000000000e+06
3.369957000000000000e+06
3.604125000000000000e+06
3.943469000000000000e+06
4.029697000000000000e+06
3.946602000000000000e+06
4.034819000000000000e+06
4.237817000000000000e+06
4.514448000000000000e+06
4.468883000000000000e+06
4.387890000000000000e+06
4.326690000000000000e+06
4.466608000000000000e+06
4.705448000000000000e+06
4.647803000000000000e+06
4.398058000000000000e+06
4.249649000000000000e+06
4.336845000000000000e+06
4.370770000000000000e+06
4.213198000000000000e+06
3.939637000000000000e+06
3.730198000000000000e+06
3.809452000000000000e+06
3.900907000000000000e+06
3.751343000000000000e+06
3.436379000000000000e+06
3.331390000000000000e+06
3.525401000000000000e+06
3.561487000000000000e+06
3.603785000000000000e+06
3.327566000000000000e+06
3.184527000000000000e+06
3.333553000000000000e+06
3.506912000000000000e+06
3.482968000000000000e+06
3.230372000000000000e+06
3.220343000000000000e+06
3.355993000000000000e+06
3.585814000000000000e+06
3.480649000000000000e+06
3.336580000000000000e+06
3.247828000000000000e+06
3.407159000000000000e+06
3.553216000000000000e+06
3.573005000000000000e+06
3.360467000000000000e+06
3.235373000000000000e+06
3.388673000000000000e+06
3.496663000000000000e+06
3.473744000000000000e+06
3.340388000000000000e+06
3.278578000000000000e+06
3.388892000000000000e+06
3.605990000000000000e+06
3.574480000000000000e+06
3.304171000000000000e+06
3.317898000000000000e+06
3.500489000000000000e+06
3.682200000000000000e+06
3.668739000000000000e+06
3.484307000000000000e+06
3.327368000000000000e+06
3.503306000000000000e+06
3.730599000000000000e+06
3.679093000000000000e+06
3.535487000000000000e+06
3.471040000000000000e+06
3.731209000000000000e+06
3.963910000000000000e+06
4.063743000000000000e+06
3.828415000000000000e+06
3.871828000000000000e+06
4.041673000000000000e+06
4.304561000000000000e+06
4.233284000000000000e+06
4.196815000000000000e+06
4.175217000000000000e+06
4.292857000000000000e+06
4.506819000000000000e+06
4.509776000000000000e+06
4.329111000000000000e+06
4.221059000000000000e+06
4.360880000000000000e+06
4.459381000000000000e+06
4.315726000000000000e+06
4.143209000000000000e+06
3.960088000000000000e+06
4.025379000000000000e+06
4.112668000000000000e+06
4.055203000000000000e+06
3.691419000000000000e+06
3.548948000000000000e+06
3.718375000000000000e+06
3.921874000000000000e+06
3.788977000000000000e+06
3.657634000000000000e+06
3.627015000000000000e+06
3.746818000000000000e+06
3.966149000000000000e+06
3.971975000000000000e+06
3.717309000000000000e+06
3.658945000000000000e+06
3.638160000000000000e+06
3.582822000000000000e+06
3.733096000000000000e+06
3.879051000000000000e+06
3.890494000000000000e+06
4.959909000000000000e+06
6.630021000000000000e+06
8.089642000000000000e+06
8.208466000000000000e+06
7.661740000000000000e+06
7.140581000000000000e+06
6.685877000000000000e+06
5.359194000000000000e+06
3.987570000000000000e+06
3.150443000000000000e+06
2.990737000000000000e+06
3.061120000000000000e+06
3.269721000000000000e+06
3.634829000000000000e+06
3.760523000000000000e+06
4.103523000000000000e+06
4.357745000000000000e+06
4.564399000000000000e+06
4.514213000000000000e+06
4.559335000000000000e+06
4.777238000000000000e+06
5.009157000000000000e+06
5.109432000000000000e+06
4.826826000000000000e+06
4.857782000000000000e+06
5.138097000000000000e+06
5.350311000000000000e+06
5.331538000000000000e+06
5.175833000000000000e+06
5.147818000000000000e+06
5.405530000000000000e+06
5.638838000000000000e+06
5.655866000000000000e+06
5.513734000000000000e+06
5.413484000000000000e+06
5.666759000000000000e+06
5.963994000000000000e+06
5.947489000000000000e+06
5.867474000000000000e+06
5.803607000000000000e+06
6.159782000000000000e+06
6.374623000000000000e+06
6.529951000000000000e+06
6.353114000000000000e+06
6.464225000000000000e+06
6.768338000000000000e+06
6.925780000000000000e+06
7.080937000000000000e+06
6.950886000000000000e+06
6.853574000000000000e+06
7.096316000000000000e+06
7.269579000000000000e+06
7.300860000000000000e+06
7.126645000000000000e+06
7.132977000000000000e+06
7.214642000000000000e+06
7.314266000000000000e+06
7.324559000000000000e+06
7.006738000000000000e+06
6.802250000000000000e+06
6.847977000000000000e+06
6.997454000000000000e+06
6.742126000000000000e+06
6.382489000000000000e+06
6.214026000000000000e+06
6.263482000000000000e+06
6.325348000000000000e+06
6.089824000000000000e+06
5.837593000000000000e+06
5.733520000000000000e+06
5.896485000000000000e+06
6.004774000000000000e+06
5.892303000000000000e+06
5.716680000000000000e+06
5.600556000000000000e+06
5.728065000000000000e+06
5.979543000000000000e+06
5.944447000000000000e+06
5.753549000000000000e+06
5.632222000000000000e+06
5.799113000000000000e+06
5.977307000000000000e+06
5.867351000000000000e+06
5.767794000000000000e+06
5.644760000000000000e+06
5.861755000000000000e+06
6.064720000000000000e+06
5.940007000000000000e+06
5.782204000000000000e+06
5.637774000000000000e+06
5.869099000000000000e+06
6.074636000000000000e+06
6.048903000000000000e+06
5.836293000000000000e+06
5.810925000000000000e+06
5.961116000000000000e+06
6.035628000000000000e+06
5.952941000000000000e+06
5.853894000000000000e+06
5.749816000000000000e+06
5.902432000000000000e+06
6.146721000000000000e+06
6.084315000000000000e+06
5.879096000000000000e+06
5.826826000000000000e+06
6.004407000000000000e+06
6.092389000000000000e+06
6.150577000000000000e+06
5.889673000000000000e+06
5.916351000000000000e+06
6.118852000000000000e+06
6.316977000000000000e+06
6.242493000000000000e+06
6.231273000000000000e+06
6.240489000000000000e+06
6.453668000000000000e+06
6.608932000000000000e+06
6.649077000000000000e+06
6.534824000000000000e+06
6.472210000000000000e+06
6.790310000000000000e+06
7.052335000000000000e+06
7.047077000000000000e+06
6.849381000000000000e+06
6.762093000000000000e+06
6.944337000000000000e+06
7.219504000000000000e+06
7.063021000000000000e+06
6.873317000000000000e+06
6.723222000000000000e+06
6.821709000000000000e+06
6.939532000000000000e+06
6.732484000000000000e+06
6.543429000000000000e+06
6.401612000000000000e+06
6.456038000000000000e+06
6.606680000000000000e+06
6.510953000000000000e+06
6.266446000000000000e+06
6.223363000000000000e+06
6.482099000000000000e+06
6.652320000000000000e+06
6.563808000000000000e+06
6.424240000000000000e+06
6.316496000000000000e+06
6.555779000000000000e+06
6.676394000000000000e+06
6.521799000000000000e+06
6.149086000000000000e+06
5.969702000000000000e+06
6.382379000000000000e+06
6.745185000000000000e+06
6.952954000000000000e+06
7.893841000000000000e+06
9.311906000000000000e+06
1.050448400000000000e+07
1.073734700000000000e+07
9.929397000000000000e+06
9.111558000000000000e+06
8.007026000000000000e+06
7.357806000000000000e+06
6.411266000000000000e+06
5.661609000000000000e+06
5.202009000000000000e+06
5.002777000000000000e+06
5.543123000000000000e+06
6.266999000000000000e+06
6.394158000000000000e+06
6.359902000000000000e+06
6.407348000000000000e+06
6.712447000000000000e+06
7.062519000000000000e+06
7.058398000000000000e+06
6.893330000000000000e+06
6.972025000000000000e+06
7.056026000000000000e+06
7.308084000000000000e+06
7.286898000000000000e+06
7.170801000000000000e+06
7.123310000000000000e+06
7.319823000000000000e+06
7.527189000000000000e+06
7.488155000000000000e+06
7.375591000000000000e+06
7.257978000000000000e+06
7.519148000000000000e+06
7.733863000000000000e+06
7.643402000000000000e+06
7.569748000000000000e+06
7.593056000000000000e+06
7.722533000000000000e+06
8.135012000000000000e+06
8.184873000000000000e+06
8.038783000000000000e+06
7.996674000000000000e+06
8.312955000000000000e+06
8.679170000000000000e+06
8.705863000000000000e+06
8.574271000000000000e+06
8.567238000000000000e+06
8.864312000000000000e+06
9.261220000000000000e+06
9.280458000000000000e+06
9.149361000000000000e+06
9.115666000000000000e+06
9.343714000000000000e+06
9.565372000000000000e+06
9.446611000000000000e+06
9.377416000000000000e+06
9.300618000000000000e+06
9.406623000000000000e+06
9.530536000000000000e+06
9.415124000000000000e+06
9.180702000000000000e+06
8.948956000000000000e+06
9.042978000000000000e+06
9.031559000000000000e+06
8.854717000000000000e+06
8.502015000000000000e+06
8.337271000000000000e+06
8.385311000000000000e+06
8.578667000000000000e+06
8.448566000000000000e+06
8.231058000000000000e+06
8.071214000000000000e+06
8.249307000000000000e+06
8.351743000000000000e+06
8.335412000000000000e+06
8.174429000000000000e+06
7.992587000000000000e+06
8.169028000000000000e+06
8.321668000000000000e+06
8.233431000000000000e+06
8.024147000000000000e+06
7.972242000000000000e+06
8.098732000000000000e+06
8.226651000000000000e+06
8.148926000000000000e+06
8.025201000000000000e+06
7.894074000000000000e+06
8.025198000000000000e+06
8.144626000000000000e+06
8.074436000000000000e+06
7.836623000000000000e+06
7.835132000000000000e+06
7.976983000000000000e+06
8.116665000000000000e+06
8.028149000000000000e+06
7.877680000000000000e+06
7.707819000000000000e+06
7.940293000000000000e+06
8.178770000000000000e+06
8.059551000000000000e+06
7.905195000000000000e+06
7.771748000000000000e+06
7.986042000000000000e+06
8.151958000000000000e+06
8.106780000000000000e+06
7.852298000000000000e+06
7.826094000000000000e+06
8.039031000000000000e+06
8.228134000000000000e+06
8.149695000000000000e+06
8.031145000000000000e+06
7.957024000000000000e+06
8.209973000000000000e+06
8.506367000000000000e+06
8.519708000000000000e+06
8.317660000000000000e+06
8.264718000000000000e+06
8.454279000000000000e+06
8.758931000000000000e+06
8.718257000000000000e+06
8.737963000000000000e+06
8.559066000000000000e+06
8.759747000000000000e+06
9.026696000000000000e+06
8.881650000000000000e+06
8.623325000000000000e+06
8.611885000000000000e+06
8.728533000000000000e+06
8.914538000000000000e+06
8.707930000000000000e+06
8.418468000000000000e+06
8.310936000000000000e+06
8.243216000000000000e+06
8.447883000000000000e+06
8.302417000000000000e+06
8.018278000000000000e+06
7.814785000000000000e+06
7.955122000000000000e+06
8.175652000000000000e+06
8.048959000000000000e+06
7.841155000000000000e+06
7.743606000000000000e+06
7.899204000000000000e+06
8.129733000000000000e+06
7.954793000000000000e+06
7.835716000000000000e+06
7.641894000000000000e+06
7.834606000000000000e+06
7.567787000000000000e+06
7.383681000000000000e+06
7.435950000000000000e+06
7.668018000000000000e+06
8.203111000000000000e+06
9.413231000000000000e+06
1.075477400000000000e+07
1.181607500000000000e+07
1.171481100000000000e+07
1.080564500000000000e+07
1.075432800000000000e+07
9.681902000000000000e+06
8.459124000000000000e+06
7.508711000000000000e+06
6.932388000000000000e+06
6.786722000000000000e+06
6.551217000000000000e+06
6.598083000000000000e+06
6.816371000000000000e+06
7.248218000000000000e+06
7.705176000000000000e+06
7.719841000000000000e+06
7.599420000000000000e+06
7.750401000000000000e+06
8.017095000000000000e+06
8.213304000000000000e+06
8.335199000000000000e+06
8.087336000000000000e+06
8.094356000000000000e+06
8.262920000000000000e+06
8.502566000000000000e+06
8.486725000000000000e+06
8.237275000000000000e+06
8.153161000000000000e+06
8.411626000000000000e+06
8.612473000000000000e+06
8.622489000000000000e+06
8.426570000000000000e+06
8.374451000000000000e+06
8.611702000000000000e+06
8.865581000000000000e+06
8.776302000000000000e+06
8.649077000000000000e+06
8.592572000000000000e+06
8.923719000000000000e+06
9.169939000000000000e+06
9.138854000000000000e+06
9.071758000000000000e+06
9.051310000000000000e+06
9.339025000000000000e+06
9.594260000000000000e+06
9.647151000000000000e+06
9.521487000000000000e+06
9.507863000000000000e+06
9.834360000000000000e+06
1.011349300000000000e+07
1.014267500000000000e+07
9.884757000000000000e+06
9.821958000000000000e+06
9.965023000000000000e+06
1.025118900000000000e+07
1.025335400000000000e+07
9.894706000000000000e+06
9.743679000000000000e+06
9.881884000000000000e+06
9.939703000000000000e+06
9.708048000000000000e+06
9.425989000000000000e+06
9.211479000000000000e+06
9.221914000000000000e+06
9.233629000000000000e+06
9.091306000000000000e+06
8.762014000000000000e+06
8.617861000000000000e+06
8.671946000000000000e+06
8.782659000000000000e+06
8.601292000000000000e+06
8.266645000000000000e+06
8.166566000000000000e+06
8.276640000000000000e+06
8.379073000000000000e+06
8.310723000000000000e+06
8.055145000000000000e+06
8.023859000000000000e+06
8.125561000000000000e+06
8.271623000000000000e+06
8.195864000000000000e+06
7.926840000000000000e+06
7.831536000000000000e+06
8.070368000000000000e+06
8.182646000000000000e+06
8.075219000000000000e+06
7.946726000000000000e+06
7.805002000000000000e+06
7.971437000000000000e+06
8.148810000000000000e+06
8.020400000000000000e+06
7.737677000000000000e+06
7.690108000000000000e+06
7.906785000000000000e+06
8.125406000000000000e+06
8.004364000000000000e+06
7.749676000000000000e+06
7.698714000000000000e+06
7.845104000000000000e+06
7.988405000000000000e+06
7.931204000000000000e+06
7.704847000000000000e+06
7.639041000000000000e+06
7.851153000000000000e+06
7.971142000000000000e+06
7.928588000000000000e+06
7.675220000000000000e+06
7.693400000000000000e+06
7.847165000000000000e+06
8.165484000000000000e+06
8.179537000000000000e+06
7.945802000000000000e+06
7.936714000000000000e+06
8.128559000000000000e+06
8.310730000000000000e+06
8.227348000000000000e+06
8.037046000000000000e+06
8.076861000000000000e+06
8.371981000000000000e+06
8.425990000000000000e+06
8.307051000000000000e+06
8.038970000000000000e+06
8.003212000000000000e+06
8.171357000000000000e+06
8.333486000000000000e+06
8.165675000000000000e+06
7.701230000000000000e+06
7.572859000000000000e+06
7.731362000000000000e+06
7.838985000000000000e+06
7.624065000000000000e+06
7.379761000000000000e+06
7.129775000000000000e+06
7.254618000000000000e+06
7.448199000000000000e+06
7.314863000000000000e+06
7.083962000000000000e+06
7.005692000000000000e+06
7.191806000000000000e+06
7.399484000000000000e+06
7.285830000000000000e+06
7.096684000000000000e+06
6.954558000000000000e+06
7.124433000000000000e+06
6.965328000000000000e+06
6.769818000000000000e+06
6.645629000000000000e+06
6.779019000000000000e+06
7.192640000000000000e+06
8.183238000000000000e+06
9.536559000000000000e+06
1.081705000000000000e+07
1.097708700000000000e+07
1.047339900000000000e+07
9.976227000000000000e+06
9.339152000000000000e+06
7.863144000000000000e+06
6.628211000000000000e+06
6.050044000000000000e+06
5.800744000000000000e+06
5.587739000000000000e+06
5.710055000000000000e+06
6.049561000000000000e+06
6.441475000000000000e+06
6.832974000000000000e+06
6.980025000000000000e+06
6.873552000000000000e+06
6.876425000000000000e+06
7.181935000000000000e+06
7.361519000000000000e+06
7.296122000000000000e+06
7.203230000000000000e+06
7.056815000000000000e+06
7.333767000000000000e+06
7.499853000000000000e+06
7.453842000000000000e+06
7.257115000000000000e+06
7.202902000000000000e+06
7.510745000000000000e+06
7.677205000000000000e+06
7.619694000000000000e+06
7.433041000000000000e+06
7.484825000000000000e+06
7.641632000000000000e+06
7.901002000000000000e+06
7.864200000000000000e+06
7.721043000000000000e+06
7.717877000000000000e+06
7.976325000000000000e+06
8.261849000000000000e+06
8.252336000000000000e+06
8.160101000000000000e+06
8.193959000000000000e+06
8.494657000000000000e+06
8.786786000000000000e+06
8.854027000000000000e+06
8.696855000000000000e+06
8.774454000000000000e+06
8.980831000000000000e+06
9.247047000000000000e+06
9.244617000000000000e+06
9.146812000000000000e+06
9.060701000000000000e+06
9.171433000000000000e+06
9.404168000000000000e+06
9.243530000000000000e+06
9.009662000000000000e+06
8.860135000000000000e+06
8.958530000000000000e+06
9.097910000000000000e+06
8.792773000000000000e+06
8.440967000000000000e+06
8.281352000000000000e+06
8.305770000000000000e+06
8.350271000000000000e+06
8.177849000000000000e+06
7.787477000000000000e+06
7.631614000000000000e+06
7.748575000000000000e+06
7.862610000000000000e+06
7.752132000000000000e+06
7.403881000000000000e+06
7.280350000000000000e+06
7.448000000000000000e+06
7.541410000000000000e+06
7.457856000000000000e+06
7.271346000000000000e+06
7.173062000000000000e+06
7.264010000000000000e+06
7.442792000000000000e+06
7.294006000000000000e+06
7.158213000000000000e+06
7.002624000000000000e+06
7.254097000000000000e+06
7.366446000000000000e+06
7.222355000000000000e+06
6.998647000000000000e+06
6.931230000000000000e+06
6.989432000000000000e+06
7.192278000000000000e+06
7.105432000000000000e+06
6.879923000000000000e+06
6.770884000000000000e+06
6.991877000000000000e+06
7.065690000000000000e+06
6.997516000000000000e+06
6.733966000000000000e+06
6.688564000000000000e+06
6.917264000000000000e+06
7.052827000000000000e+06
6.973619000000000000e+06
6.714766000000000000e+06
6.655860000000000000e+06
6.815025000000000000e+06
6.982446000000000000e+06
6.955217000000000000e+06
6.771686000000000000e+06
6.665800000000000000e+06
6.863565000000000000e+06
7.079597000000000000e+06
6.956206000000000000e+06
6.736671000000000000e+06
6.695202000000000000e+06
6.921434000000000000e+06
7.076054000000000000e+06
7.112620000000000000e+06
6.997194000000000000e+06
6.963426000000000000e+06
7.221461000000000000e+06
7.391970000000000000e+06
7.301204000000000000e+06
7.213118000000000000e+06
7.174048000000000000e+06
7.407834000000000000e+06
7.521945000000000000e+06
7.520394000000000000e+06
7.278676000000000000e+06
7.260892000000000000e+06
7.515443000000000000e+06
7.600558000000000000e+06
7.567091000000000000e+06
7.261063000000000000e+06
7.054093000000000000e+06
7.215838000000000000e+06
7.299018000000000000e+06
7.050335000000000000e+06
6.840703000000000000e+06
6.596487000000000000e+06
6.646181000000000000e+06
6.743398000000000000e+06
6.663325000000000000e+06
6.442044000000000000e+06
6.285408000000000000e+06
6.504839000000000000e+06
6.700552000000000000e+06
6.569374000000000000e+06
6.377341000000000000e+06
6.211150000000000000e+06
6.506407000000000000e+06
6.555362000000000000e+06
6.314246000000000000e+06
5.833971000000000000e+06
5.948135000000000000e+06
6.351652000000000000e+06
6.610955000000000000e+06
7.397818000000000000e+06
8.554060000000000000e+06
9.952797000000000000e+06
1.050617200000000000e+07
9.986948000000000000e+06
9.237096000000000000e+06
8.469248000000000000e+06
7.023410000000000000e+06
6.355703000000000000e+06
5.642905000000000000e+06
5.102942000000000000e+06
4.770123000000000000e+06
5.098048000000000000e+06
5.612074000000000000e+06
5.956428000000000000e+06
6.120388000000000000e+06
6.053753000000000000e+06
6.087497000000000000e+06
6.436148000000000000e+06
6.606352000000000000e+06
6.598774000000000000e+06
6.431815000000000000e+06
6.366287000000000000e+06
6.674690000000000000e+06
6.873983000000000000e+06
6.770850000000000000e+06
6.618207000000000000e+06
6.568762000000000000e+06
6.801586000000000000e+06
6.985797000000000000e+06
6.911376000000000000e+06
6.726362000000000000e+06
6.776806000000000000e+06
6.923162000000000000e+06
7.153862000000000000e+06
7.074267000000000000e+06
6.994294000000000000e+06
7.036753000000000000e+06
7.270774000000000000e+06
7.508441000000000000e+06
7.534628000000000000e+06
7.400076000000000000e+06
7.315173000000000000e+06
7.595112000000000000e+06
7.970148000000000000e+06
7.936912000000000000e+06
7.862668000000000000e+06
7.979648000000000000e+06
8.215218000000000000e+06
8.440033000000000000e+06
8.490074000000000000e+06
8.370729000000000000e+06
8.381939000000000000e+06
8.597594000000000000e+06
8.821397000000000000e+06
8.783604000000000000e+06
8.606500000000000000e+06
8.533745000000000000e+06
8.664475000000000000e+06
8.665798000000000000e+06
8.460211000000000000e+06
8.283535000000000000e+06
8.053642000000000000e+06
8.038870000000000000e+06
8.139819000000000000e+06
7.965209000000000000e+06
7.564055000000000000e+06
7.392781000000000000e+06
7.356086000000000000e+06
7.513099000000000000e+06
7.361126000000000000e+06
7.101343000000000000e+06
6.913888000000000000e+06
7.102565000000000000e+06
7.211682000000000000e+06
7.163762000000000000e+06
6.829888000000000000e+06
6.863846000000000000e+06
6.989124000000000000e+06
7.135875000000000000e+06
6.979303000000000000e+06
6.750382000000000000e+06
6.698863000000000000e+06
6.942328000000000000e+06
7.069762000000000000e+06
6.979317000000000000e+06
6.723463000000000000e+06
6.565638000000000000e+06
6.868057000000000000e+06
7.023463000000000000e+06
6.868471000000000000e+06
6.646702000000000000e+06
6.590422000000000000e+06
6.749912000000000000e+06
6.903375000000000000e+06
6.748723000000000000e+06
6.569201000000000000e+06
6.557392000000000000e+06
6.713729000000000000e+06
6.818949000000000000e+06
6.737893000000000000e+06
6.537992000000000000e+06
6.493704000000000000e+06
6.628578000000000000e+06
6.801108000000000000e+06
6.678651000000000000e+06
6.485861000000000000e+06
6.568473000000000000e+06
6.718880000000000000e+06
6.829764000000000000e+06
6.690066000000000000e+06
6.617287000000000000e+06
6.448801000000000000e+06
6.746343000000000000e+06
6.892741000000000000e+06
6.771047000000000000e+06
6.614808000000000000e+06
6.602001000000000000e+06
6.936916000000000000e+06
7.178861000000000000e+06
7.092797000000000000e+06
6.926507000000000000e+06
6.908856000000000000e+06
7.176598000000000000e+06
7.390366000000000000e+06
7.392871000000000000e+06
7.282173000000000000e+06
7.199028000000000000e+06
7.353966000000000000e+06
7.460908000000000000e+06
7.499092000000000000e+06
7.199770000000000000e+06
7.150776000000000000e+06
7.199495000000000000e+06
7.223171000000000000e+06
7.099568000000000000e+06
6.764969000000000000e+06
6.650824000000000000e+06
6.742045000000000000e+06
6.912036000000000000e+06
6.599312000000000000e+06
6.306308000000000000e+06
6.225237000000000000e+06
